ADC Sampling rate (Hz):
100
Fragment duration (sec):
20
Number of samples exported by each lead:
1999

#I[uV]
714 -160 551 262 399 -637 236 -34 81 -204 -76 -101 -54 -64 -43 -28 -23 15 -25 -43 -38 -22 -65 -88 -75 -42 -52 -165 -52 -66 -68 -111 -76 -69 -56 -19 -51 -47 -37 -130 -40 19 -41 -94 -64 -8 -74 15 -29 -112 -19 29 -28 27 24 -149 0 10 -12 -15 -39 8 -62 -13 -95 135 170 177 -48 -196 -132 -64 -119 -11 -113 -81 -85 109 -88 -136 -77 -7 -59 -65 4 -58 -20 -20 -26 -47 -48 -31 -33 1 -40 -101 -46 -54 -91 -38 -88 -41 -43 68 -35 21 -43 -62 -63 -13 -56 -99 -10 80 -62 -36 -21 116 -42 -49 -5 -28 21 -13 -14 -25 5 -6 37 106 -37 0 -21 -88 -82 -66 150 155 53 -95 -190 -19 -84 -74 68 -62 -90 -74 7 -102 -89 -41 23 -47 -120 -48 -5 -33 75 17 44 0 -6 -16 -186 -23 -52 -74 -74 -67 -49 -34 24 -45 -92 -40 -36 -55 -26 -44 -68 -38 -52 -51 -152 -13 37 -11 -21 -28 1 -15 12 -31 107 14 -60 1 -2 -14 -123 -26 -57 -23 -81 57 286 -27 4 -97 -337 -113 -299 -101 -190 -102 -140 -99 -202 -89 -106 -93 -176 -58 -95 -58 44 -24 -54 0 15 -25 -25 -27 -115 -73 -162 -66 -124 -77 -43 -70 -137 -75 -134 -61 -30 -65 -134 -49 -3 -70 -51 -57 1 -61 -186 -42 -32 -37 22 -29 -57 -24 59 -21 -122 -23 -11 -34 19 -38 -70 -37 -104 16 -4 7 409 13 -230 -31 -137 -86 -69 -82 -56 -62 -125 -68 -18 -48 -22 -44 -78 -18 93 -4 -27 23 23 16 53 -2 -52 -29 -82 -61 -108 -59 -19 -66 -68 -59 -15 -45 -38 -42 -77 -32 -78 -35 33 -28 14 -35 -113 -37 -7 -22 7 -29 -13 -6 -96 -24 -1 -4 74 0 -68 -24 -32 -32 -14 -37 -63 4 -132 10 238 -10 149 -37 -301 -79 -110 -113 -104 -105 -178 -100 -38 -80 -83 -95 -138 -83 -78 -69 11 -52 -9 -48 -129 -65 13 -55 -87 -87 -149 -97 -107 -113 -84 -105 -41 -96 -186 -92 -101 -95 -91 -99 -77 -117 -110 -102 -25 -92 -225 -83 -259 -97 -31 -90 -82 -97 -156 -96 -104 -78 -47 -89 -123 -68 -167 -87 -172 -79 -187 -47 -99 -20 214 -50 252 -51 -373 -65 -191 -121 -172 -151 -220 -135 -177 -106 -183 -105 -117 -90 24 -69 -22 -56 49 -50 48 -55 4 -64 -21 -75 -19 -90 -48 -88 -91 -90 17 -99 2 -93 -51 -93 -83 -64 -72 -84 -58 -76 -66 -82 -28 -69 -97 -62 -28 -67 9 -57 -42 -53 -40 -45 -54 -41 -66 -39 -30 -45 -6 -39 -20 -19 -63 6 80 -14 108 4 -57 -18 -119 -48 -107 -72 -74 -84 -58 -64 -77 -44 -32 -20 -4 -18 7 0 37 -4 26 -8 5 -21 -47 -47 -97 -64 -98 -72 -88 -74 -54 -69 -45 -70 -62 -61 -75 -61 -52 -61 -39 -59 -55 -42 -52 -43 -59 -33 -24 -22 -11 -25 -2 -23 -24 -22 -6 -12 -43 -10 -44 11 -12 -6 54 -5 32 -22 39 -45 -92 -55 -155 -78 -129 -104 -72 -88 -66 -77 -93 -55 -56 -36 -12 -25 4 -5 26 -20 6 -15 -27 -47 -92 -64 -79 -72 -94 -74 -75 -81 -59 -81 -59 -63 -57 -62 -55 -59 -56 -47 -58 -46 -52 -47 -55 -40 -51 -41 -25 -18 1 -17 8 -1 13 -10 -18 5 -48 0 -30 12 69 1 80 -13 -12 -23 -58 -39 -123 -94 -124 -83 -93 -94 -73 -62 -91 -60 -66 -40 -11 -22 8 -20 18 -18 9 -14 -24 -34 -41 -42 -71 -51 -60 -73 -57 -54 -59 -64 -62 -46 -66 -44 -43 -48 -46 -31 -51 -39 -26 -27 -16 -17 -15 -20 -11 -13 -12 -6 -17 -10 31 -6 25 -9 0 6 -36 2 -36 22 18 45 123 9 98 0 -77 -49 -98 -88 -92 -88 -62 -56 -41 -61 -80 -47 -59 -44 -57 -29 3 -12 25 -12 15 -21 0 -29 -19 -36 -30 -51 -32 -59 -71 -64 -25 -59 -36 -43 -61 -45 -34 -31 -9 -34 -2 -26 -34 -21 -43 -24 -31 -19 70 -11 112 -16 -41 -14 119 -9 -34 -18 -32 -27 -99 -2 -62 19 119 24 -48 25 56 -3 38 -7 -129 -53 -132 -80 -106 -64 -159 -57 -49 -45 -42 -29 -48 -20 -60 -18 -86 -15 -41 -10 125 -12 -127 -36 -46 -47 -229 -58 -95 -36 -80 -45 -32 -44 -148 -35 -45 -35 -35 -32 -20 -45 14 -28 -17 -37 -62 -28 -57 -18 19 -21 35 -21 -30 -19 58 -22 4 -26 -35 -24 20 -29 -31 -7 -32 39 -17 14 257 -15 -99 -37 -148 -109 -45 -115 -144 -102 -44 -78 -121 -79 -100 -61 -56 -51 -32 -24 6 -9 -91 -12 45 -29 24 -62 -29 -61 -175 -83 -34 -45 -55 -53 -83 -46 -39 -52 -91 -41 50 -47 -61 -31 -73 -35 -2 -39 42 -40 -48 -24 -59 -27 -30 -7 32 -7 -19 -12 7 -22 -27 -47 -1 -14 -17 -25 -111 -6 219 137 104 -91 -247 -138 -74 -105 -108 -70 -114 -49 -83 -52 -132 -60 38 -29 -126 -20 -31 -3 104 15 -59 8 23 -30 -140 -75 -74 -64 -62 -55 -54 -55 -48 -35 -250 -53 -18 -67 -178 -43 -49 -27 -5 -56 -4 -48 -19 -23 -38 -31 -202 -18 147 -39 -72 -2 89 -32 -29 1 54 1 -27 -20 15 -6 -103 -38 -26 -38 140 246 162 -40 43 -153 -70 -132 -64 -110 -94 -91 -35 -84 91 -68 -60 -76 -69 -54 -9 5 -37 -26 -10 -84 75 -116 96 -3 -31 -16 -71 -17 -15 -60 -73 -38 -70 -28 -51 -11 -48 -7 -61 -5 -46 -44 -44 -4 -59 -106 -18 11 -49 -102 -51 67 -24 -81 -3 -27 -42 -7 -19 -48 0 -29 -1 51 -10 -123 -32 -1 -44 -44 -27 -19 79 353 7 -273 -126 -158 -122 -14 -101 35 -105 -165 -86 -138 -79 -117 -91 -86 -75 -28 -68 -120 -39 -12 -5 -15 -21 -113 -44 -106 -68 -76 -73 -179 -89 -113 -90 -210 -79 -91 -79 -100 -52 -109 -61 -123 -70 -41 -62 -48 -68 -57 -51 -142 -37 -46 -42 40 -46 -83 -53 -44 -47 -5 -25 -54 -17 2 -18 -11 -27 -86 -33 -29 -48 36 -40 -156 13 -3 43 400 0 -310 -52 -109 -94 -42 -103 -72 -72 -134 -70 -46 -70 87 -52 -147 -30 1 -34 -81 -9 166 -1 -115 -5 39 -31 -74 -41 -31 -52 -152 -50 -8 -50 -21 -58 -110 -42 -24 -42 16 -39 -62 -25 -57 -25 33 -22 -95 -27 -4 -21 13 -15 -26 -24 11 -14 -59 -7 58 -2 -23 10 50 7 -47 5 46 -8 -17 -8 -76 22 -98 -6 463 -32 -49 -40 -242 -109 -115 -122 -151 -120 -145 -113 -134 -88 -107 -95 -89 -73 -81 -65 -35 -31 -125 -35 -36 -28 -106 -41 -50 -79 -201 -79 -135 -80 -72 -84 -102 -77 -184 -56 -179 -57 -93 -68 -159 -53 -7 -75 32 -55 -109 -62 -131 -57 -51 -36 -54 -43 57 -29 -28 -20 -24 -20 23 -33 -30 -21 -13 -14 -99 -38 55 -41 56 -57 -211 -83 -192 -90 -194 -103 -96 -80 -46 -77 28 -64 -144 -50 10 -29 29 -37 22 -29 -34 -28 30 -51 11 -56 -97 -68 -124 -72 -64 -73 -21 -72 5 -68 11 -62 -34 -68 -78 -57 -65 -40 -26 -48 -12 -38 -44 -45 -80 -32 -54 -31 7 -22 25 -25 -6 -26 -49 -6 -41 -13 -46 -1 9 -11 67 -8 56 -26 -19 -37 -116 -57 -118 -98 -97 -107 -64 -81 -60 -64 -81 -57 -53 -40 -41 -30 0 -26 11 -18 4 -14 -38 -37 -55 -36 -82 -52 -83 -63 -68 -74 -67 -60 -67 -59 -37 -51 -46 -34 -42 -44 -60 -37 -42 -24 -43 -20 -53 -33 -37 -31 -12 -18 5 -19 -8 -15 -36 -25 -37 -18 -38 8 -46 11 62 -7 64 0 52 -21 -2 -25 -117 -34 -120 -58 -65 -72 -46 -50 -39 -32 -25 -20 0 7 31 -6 29 0 29 -15 -16 -20 -21 -41 -72 -43 -87 -51 -74 -65 -73 -75 -44 -58 -59 -55 -59 -43 -39 -53 -46 -45 -35 -47 -34 -39 -40 -49 -37 -51 -60 -41 -40 -36 -32 -41 -7 -42 -43 -35 -76 -3 -46 3 32 23 83 2 63 -22 -54 -45 -120 -89 -102 -89 -62 -76 -72 -47 -78 -40 -67 -28 -13 -11 0 -3 22 -18 40 -19 -6 -19 -42 -47 -70 -52 -102 -66 -85 -76 -67 -79 -75 -76 -72 -68 -65 -72 -66 -48 -81 -70 -66 -60 -67 -55 -55 -59 -40 -48 -36 -47 -40 -54 -48 -30 -60 -30 -40 -24 19 -45 130 175 76 -100 -214 -113 -126 -136 -41 -119 -82 -107 -64 -90 -76 -81 -72 -51 -22 -45 -32 -33 -41 -16 51 -41 -30 -50 -53 -71 -40 -80 -81 -80 -32 -95 -33 -92 -84 -90 -57 -72 -57 -70 -42 -73 -60 -71 -35 -70 39 -55 -51 -50 -22 -52 -3 -43 -118 -62 -137 -58 -192 -28 2 -9 -144 -15 20 90 191 -55 -255 -116 -233 -113 -158 -79 -97 -81 -105 -61 -168 -48 -53 -27 -174 -4 -105 10 -35 -9 103 -34 33 -36 -67 -63 -164 -60 -110 -68 36 -78 -153 -63 -81 -50 -77 -43 22 -54 -83 -42 -161 -72 -7 -60 22 -60 -48 -48 -74 -4 -56 -26 -24 -38 -34 -65 -76 -56 -29 -61 -53 -71 -87 -112 106 354 196 -175 -342 -220 -62 -162 -134 -101 -208 -106 -29 -88 -184 -97 -101 -91 -66 -76 4 -23 -43 -29 -21 -5 -20 -85 -187 -125 -142 -148 -74 -140 -75 -128 -216 -125 -83 -137 -138 -100 -155 -112 -148 -134 -130 -94 -81 -11 -24 -11 58 -6 -51 9 -30 2 29 -19 -18 -4 -13 -16 12 -8 -54 1 1 43 39 99 164 -46 -137 -86 -264 -160 24 -129 -180 -88 -154 -77 -154 -72 -207 -64 -90 -41 -18 -19 -21 -8 32 -17 -6 -24 -83 -62 -106 -67 -81 -69 -115 -54 -188 -62 -59 -59 -11 -48 -167 -58 8 -51 -69 -52 -43 -39 -15 -32 -90 -22 6 -26 -5 -8 -83 -41 17 -40 -7 -20 -38 -30 -12 -68 -80 -94 -61 380 398 115 -197 -117 -15 -116 25 32 -35 -55 20 -38 -26 -7 81 102 -39 -68 158 72 148 68 46 165 111 0 27 13 1 -47 42 -3 -56 -47 -10 -35 -2 -59 8 -13 -20 -79 -40 -17 -136 -39 -1 1 -50 -78 110 -74 -79 71 -68 -75 84 -75 -52 -42 -68 128 -79 -120 18 5 -50 -14 -56 -107 26 -194 -61 363 334 116 -127 -255 -120 -187 -17 -131 -58 -50 -78 -9 -130 -91 -95 -131 3 -29 74 37 -45 4 -6 -60 -38 93 -41 -132 -56 -114 -46 -156 -74 -100 -57 -179 -102 -20 -74 -81 -80 -88 -40 -153 
#II[uV]
-927 -406 -875 149 -819 -271 -762 232 -704 -78 -648 -726 -632 -670 -618 -556 -586 -605 -576 -569 -593 -592 -630 -685 -660 -633 -655 -727 -656 -694 -648 -739 -644 -629 -637 -731 -656 -647 -622 -702 -629 -682 -628 -714 -628 -737 -642 -634 -622 -630 -649 -746 -603 -524 -572 -684 -586 -670 -616 -611 -634 -588 -617 -703 -650 -607 -375 -184 -660 -1053 -811 -767 -759 -763 -729 -706 -705 -754 -710 -895 -706 -709 -681 -805 -642 -823 -598 -789 -596 -640 -610 -786 -652 -666 -654 -820 -672 -729 -682 -707 -670 -771 -650 -669 -667 -653 -655 -693 -653 -695 -656 -802 -618 -663 -667 -620 -639 -662 -624 -649 -602 -611 -600 -644 -592 -645 -617 -650 -607 -593 -614 -608 -648 -737 -657 -724 -498 -451 -579 -734 -778 -696 -697 -674 -670 -654 -696 -655 -651 -677 -711 -625 -673 -613 -755 -630 -626 -625 -597 -573 -652 -536 -644 -589 -732 -634 -752 -631 -727 -624 -710 -651 -639 -616 -730 -608 -618 -614 -598 -617 -690 -616 -763 -616 -655 -588 -657 -602 -685 -627 -731 -576 -553 -543 -569 -559 -786 -612 -578 -594 -701 -589 -636 -633 -897 -549 -78 -540 -903 -660 -1013 -716 -873 -738 -866 -713 -840 -705 -861 -684 -760 -698 -752 -665 -688 -637 -612 -607 -641 -573 -525 -579 -630 -612 -745 -647 -780 -644 -663 -661 -709 -653 -747 -649 -674 -643 -646 -645 -619 -639 -672 -633 -650 -629 -640 -639 -684 -625 -610 -628 -655 -597 -552 -594 -569 -598 -668 -607 -656 -613 -596 -617 -566 -610 -758 -554 -743 -560 153 -552 -922 -601 -705 -664 -695 -660 -623 -655 -686 -673 -601 -631 -569 -614 -623 -591 -604 -566 -505 -544 -555 -541 -466 -565 -624 -589 -631 -631 -674 -636 -584 -641 -703 -632 -621 -628 -621 -626 -605 -615 -618 -605 -576 -599 -553 -588 -649 -599 -615 -601 -547 -610 -642 -570 -607 -579 -523 -570 -470 -563 -634 -588 -618 -600 -595 -620 -607 -573 -738 -535 -89 -605 -576 -566 -833 -672 -748 -720 -683 -721 -730 -713 -667 -699 -688 -703 -697 -695 -630 -667 -635 -623 -592 -631 -594 -633 -522 -639 -648 -673 -738 -692 -694 -709 -714 -701 -649 -712 -741 -708 -609 -679 -697 -673 -642 -664 -609 -653 -647 -650 -683 -646 -682 -659 -627 -638 -580 -630 -576 -615 -613 -617 -491 -619 -579 -607 -572 -613 -643 -616 -665 -569 -526 -529 -373 -562 -78 -540 -839 -579 -552 -623 -686 -667 -618 -666 -591 -642 -549 -626 -548 -607 -472 -574 -532 -557 -389 -533 -403 -534 -420 -531 -502 -550 -494 -582 -557 -596 -607 -598 -484 -605 -502 -605 -528 -588 -571 -570 -557 -596 -567 -588 -537 -574 -516 -565 -548 -568 -499 -560 -501 -547 -527 -554 -512 -561 -517 -558 -522 -560 -528 -555 -532 -547 -551 -515 -531 -479 -375 -500 -370 -479 -518 -506 -576 -547 -608 -583 -573 -565 -564 -554 -553 -525 -535 -508 -484 -493 -457 -466 -438 -464 -436 -481 -443 -495 -505 -527 -572 -545 -573 -551 -563 -556 -557 -555 -544 -555 -540 -550 -543 -541 -540 -539 -532 -540 -511 -533 -505 -505 -544 -496 -518 -498 -483 -492 -482 -496 -502 -499 -517 -500 -548 -511 -547 -480 -519 -500 -412 -511 -485 -512 -456 -549 -605 -541 -663 -577 -634 -605 -575 -595 -570 -582 -579 -556 -580 -537 -543 -513 -503 -500 -447 -490 -461 -495 -489 -519 -539 -535 -565 -553 -603 -561 -596 -565 -565 -564 -549 -572 -523 -554 -526 -549 -525 -538 -543 -535 -565 -532 -553 -533 -528 -535 -514 -538 -478 -553 -496 -548 -529 -569 -576 -555 -610 -547 -606 -531 -488 -554 -448 -556 -564 -578 -598 -597 -666 -659 -681 -657 -652 -673 -651 -645 -646 -625 -640 -610 -600 -592 -598 -581 -545 -575 -525 -567 -550 -579 -579 -602 -620 -611 -636 -633 -636 -625 -631 -634 -647 -622 -618 -620 -597 -614 -605 -612 -608 -617 -607 -605 -612 -599 -601 -595 -596 -581 -580 -585 -559 -577 -526 -578 -564 -594 -590 -573 -637 -569 -593 -562 -525 -556 -422 -569 -467 -585 -688 -631 -674 -680 -665 -692 -662 -665 -617 -663 -673 -648 -634 -632 -615 -609 -582 -585 -536 -578 -540 -586 -536 -601 -583 -615 -619 -638 -605 -642 -660 -647 -576 -639 -633 -627 -601 -627 -604 -612 -557 -610 -556 -608 -601 -596 -596 -597 -556 -593 -508 -585 -462 -586 -575 -580 -424 -577 -474 -586 -474 -597 -578 -580 -540 -558 -477 -545 -572 -550 -270 -593 -449 -573 -672 -646 -671 -675 -612 -662 -655 -643 -533 -631 -594 -616 -492 -603 -540 -585 -511 -576 -484 -574 -361 -585 -554 -595 -588 -608 -635 -633 -548 -631 -587 -620 -598 -627 -563 -626 -601 -617 -633 -622 -538 -625 -554 -607 -573 -614 -667 -600 -542 -592 -542 -594 -561 -583 -554 -583 -441 -583 -562 -584 -615 -591 -546 -585 -579 -564 -630 -529 -667 -560 0 -600 -811 -625 -760 -696 -631 -688 -680 -680 -662 -662 -695 -662 -625 -646 -646 -624 -641 -596 -566 -572 -539 -565 -548 -598 -562 -621 -582 -651 -704 -666 -623 -644 -705 -644 -612 -631 -615 -615 -658 -618 -572 -622 -613 -620 -569 -618 -663 -626 -563 -621 -568 -612 -659 -598 -589 -572 -545 -577 -534 -573 -619 -589 -629 -617 -519 -621 -593 -603 -726 -553 -405 -381 -433 -659 -853 -720 -686 -719 -718 -673 -640 -639 -751 -636 -691 -633 -591 -600 -699 -600 -618 -568 -539 -553 -577 -552 -516 -595 -751 -646 -651 -653 -679 -618 -704 -616 -698 -634 -794 -651 -636 -622 -776 -604 -612 -598 -663 -617 -566 -641 -803 -587 -673 -611 -712 -600 -634 -600 -637 -588 -670 -571 -577 -584 -561 -580 -739 -583 -731 -633 -703 -612 -784 -589 -684 -273 -234 -675 -752 -785 -734 -774 -716 -714 -729 -686 -685 -695 -700 -688 -726 -662 -725 -638 -671 -644 -685 -617 -668 -624 -575 -660 -610 -648 -624 -671 -676 -676 -669 -651 -680 -679 -647 -651 -675 -663 -635 -642 -666 -640 -639 -629 -615 -650 -656 -735 -603 -671 -625 -682 -604 -640 -615 -676 -633 -718 -610 -635 -577 -662 -540 -747 -582 -636 -624 -721 -592 -659 -601 -729 -607 -842 -523 2 -510 -1030 -740 -870 -739 -770 -724 -698 -717 -806 -694 -798 -712 -839 -720 -799 -687 -680 -654 -761 -657 -732 -583 -564 -598 -649 -617 -705 -655 -843 -669 -783 -697 -746 -676 -861 -681 -660 -674 -690 -648 -752 -662 -706 -660 -675 -650 -636 -626 -707 -625 -711 -636 -589 -627 -648 -616 -679 -622 -574 -613 -620 -581 -577 -577 -647 -585 -579 -592 -627 -600 -599 -633 -657 -635 -727 -562 -704 -506 268 -542 -1012 -615 -740 -652 -639 -670 -668 -662 -669 -653 -620 -655 -612 -634 -615 -599 -618 -584 -550 -586 -443 -570 -571 -583 -604 -597 -655 -617 -609 -634 -703 -636 -618 -635 -602 -629 -603 -635 -662 -632 -527 -621 -694 -617 -618 -613 -522 -609 -705 -611 -567 -601 -614 -595 -543 -596 -612 -591 -583 -579 -588 -570 -568 -570 -500 -554 -571 -563 -640 -585 -520 -577 -608 -559 -823 -553 115 -605 -712 -592 -860 -697 -741 -720 -680 -721 -710 -717 -687 -696 -679 -692 -668 -673 -639 -667 -594 -641 -559 -638 -504 -612 -499 -612 -566 -642 -708 -658 -673 -671 -608 -669 -600 -663 -639 -646 -639 -646 -632 -656 -596 -635 -559 -637 -505 -629 -566 -635 -583 -625 -511 -606 -528 -605 -467 -595 -578 -588 -488 -590 -516 -622 -522 -613 -508 -592 -596 -622 -313 -616 -571 -646 -733 -671 -705 -689 -734 -722 -609 -715 -619 -677 -602 -655 -617 -643 -542 -616 -472 -610 -540 -597 -558 -591 -526 -605 -521 -615 -648 -637 -669 -646 -632 -654 -613 -654 -577 -648 -578 -636 -601 -634 -632 -628 -635 -617 -625 -615 -624 -614 -586 -622 -627 -610 -609 -604 -567 -592 -553 -603 -556 -594 -610 -585 -620 -588 -646 -588 -602 -595 -479 -574 -484 -605 -573 -628 -728 -644 -751 -692 -697 -705 -675 -688 -668 -658 -676 -653 -640 -631 -613 -612 -568 -603 -543 -600 -568 -594 -592 -612 -626 -620 -661 -635 -659 -653 -651 -662 -647 -649 -641 -636 -623 -636 -631 -626 -612 -625 -612 -616 -599 -610 -612 -601 -614 -606 -594 -604 -571 -608 -577 -554 -580 -573 -596 -587 -624 -588 -636 -561 -627 -552 -503 -575 -514 -543 -532 -575 -584 -559 -696 -590 -696 -623 -649 -638 -621 -618 -616 -604 -617 -576 -586 -559 -555 -553 -539 -541 -506 -547 -558 -581 -586 -599 -637 -616 -665 -623 -651 -639 -636 -635 -627 -623 -614 -622 -600 -618 -605 -626 -620 -642 -627 -632 -625 -628 -618 -628 -616 -620 -599 -612 -578 -605 -568 -621 -582 -633 -602 -619 -651 -582 -618 -554 -506 -533 -444 -525 -461 -560 -570 -579 -650 -622 -635 -630 -612 -628 -613 -602 -633 -564 -600 -547 -552 -524 -510 -505 -477 -505 -472 -506 -494 -515 -537 -538 -574 -554 -613 -567 -616 -583 -585 -577 -589 -570 -562 -565 -556 -567 -557 -561 -574 -562 -570 -552 -577 -547 -567 -551 -514 -547 -504 -551 -524 -565 -575 -555 -586 -534 -536 -502 -463 -499 -344 -274 -380 -555 -671 -621 -571 -645 -515 -625 -601 -613 -578 -600 -584 -593 -612 -560 -522 -537 -529 -529 -497 -512 -433 -518 -500 -514 -468 -545 -533 -566 -548 -572 -543 -582 -533 -583 -458 -579 -491 -564 -462 -549 -503 -551 -463 -561 -458 -549 -406 -536 -465 -535 -408 -540 -416 -554 -519 -566 -589 -577 -542 -540 -490 -503 -577 -504 -167 -397 -344 -523 -611 -613 -610 -615 -479 -592 -536 -591 -585 -576 -523 -556 -485 -534 -523 -501 -556 -475 -400 -489 -298 -509 -492 -532 -456 -575 -667 -574 -519 -570 -508 -575 -595 -559 -488 -576 -619 -565 -523 -567 -490 -549 -603 -560 -514 -556 -536 -550 -551 -535 -452 -505 -529 -514 -540 -533 -556 -552 -512 -561 -507 -581 -540 -577 -624 -571 -355 -14 -205 -649 -806 -713 -623 -656 -560 -608 -642 -601 -545 -594 -638 -593 -620 -587 -574 -557 -526 -554 -530 -489 -491 -509 -458 -530 -574 -573 -640 -622 -519 -610 -615 -614 -583 -580 -562 -572 -623 -569 -579 -578 -584 -559 -656 -556 -440 -536 -509 -545 -551 -549 -513 -520 -515 -513 -484 -559 -606 -563 -595 -585 -550 -584 -532 -549 -627 -502 -654 -461 -208 -619 -805 -706 -786 -726 -668 -700 -721 -666 -740 -678 -759 -671 -776 -641 -725 -614 -661 -600 -562 -578 -584 -575 -572 -577 -628 -616 -738 -642 -677 -658 -668 -642 -804 -639 -770 -631 -673 -627 -741 -626 -653 -621 -688 -620 -665 -611 -754 -603 -757 -600 -628 -568 -588 -551 -646 -592 -678 -706 -593 -682 -837 -739 -739 -764 -790 -743 -939 -181 -68 -578 -872 -822 -715 -777 -718 -655 -706 -687 -696 -705 -661 -685 -655 -593 -724 -615 -510 -605 -616 -484 -492 -392 -507 -568 -536 -592 -619 -680 -628 -572 -702 -595 -698 -707 -636 -631 -624 -561 -600 -536 -685 -642 -638 -670 -640 -567 -671 -607 -513 -607 -616 -526 -722 -593 -565 -553 -586 -511 -570 -454 -612 -665 -587 -574 -634 -647 -654 -646 -596 -869 -653 163 -26 -562 -749 -766 -682 -761 -623 -621 -602 -562 -629 -642 -658 -610 -630 -609 -566 -563 -560 -410 -493 -474 -452 -460 -542 -439 -533 -591 -561 -627 -614 -647 -608 -525 -581 -736 -620 -548 -582 -550 -583 -605 -542 -521 
#III[uV]
-1642 -245 -1427 -112 -1218 365 -998 267 -785 126 -571 -625 -577 -605 -575 -527 -562 -621 -551 -525 -554 -569 -565 -597 -585 -591 -603 -562 -604 -628 -579 -628 -567 -560 -581 -712 -605 -600 -585 -572 -589 -701 -587 -620 -563 -729 -568 -649 -592 -517 -629 -775 -575 -551 -596 -535 -585 -680 -604 -596 -594 -597 -555 -690 -554 -742 -545 -362 -611 -857 -679 -702 -639 -751 -616 -624 -620 -863 -622 -758 -629 -701 -622 -740 -646 -765 -578 -769 -569 -592 -562 -755 -619 -667 -613 -719 -626 -675 -590 -668 -581 -729 -607 -737 -632 -674 -612 -631 -590 -682 -600 -703 -608 -744 -604 -583 -617 -779 -581 -599 -597 -582 -621 -630 -578 -620 -622 -643 -644 -699 -577 -608 -627 -649 -574 -658 -648 -607 -633 -638 -588 -677 -613 -599 -738 -592 -606 -580 -658 -574 -622 -584 -697 -566 -634 -581 -620 -592 -672 -591 -697 -536 -637 -572 -545 -610 -700 -557 -652 -556 -660 -617 -664 -571 -637 -567 -581 -559 -572 -572 -621 -578 -710 -564 -502 -574 -695 -590 -664 -598 -733 -561 -565 -512 -677 -574 -725 -613 -575 -579 -578 -563 -579 -609 -816 -607 -365 -513 -907 -563 -675 -602 -573 -637 -676 -611 -699 -606 -658 -595 -653 -604 -575 -607 -592 -579 -657 -582 -586 -573 -540 -554 -604 -584 -630 -574 -618 -577 -538 -583 -666 -582 -609 -574 -539 -582 -616 -579 -484 -589 -669 -563 -599 -572 -641 -577 -498 -582 -577 -590 -677 -568 -494 -569 -629 -576 -545 -583 -645 -579 -615 -578 -495 -573 -654 -570 -739 -567 -256 -566 -691 -570 -568 -577 -625 -577 -566 -593 -560 -605 -582 -583 -546 -570 -544 -573 -698 -562 -477 -568 -579 -557 -519 -563 -571 -559 -548 -570 -565 -576 -564 -574 -635 -573 -606 -582 -582 -584 -527 -583 -540 -569 -609 -570 -567 -553 -536 -562 -607 -578 -555 -580 -628 -564 -510 -554 -522 -566 -545 -562 -566 -563 -585 -567 -581 -582 -544 -577 -605 -546 -328 -595 -726 -529 -531 -593 -637 -606 -578 -615 -552 -612 -628 -619 -605 -607 -559 -612 -551 -597 -646 -571 -583 -583 -464 -568 -535 -583 -560 -586 -589 -595 -587 -596 -629 -596 -607 -616 -555 -616 -507 -583 -606 -573 -565 -547 -498 -551 -621 -557 -457 -562 -423 -561 -596 -547 -498 -533 -420 -518 -509 -538 -444 -530 -456 -538 -405 -525 -471 -537 -477 -522 -427 -508 -588 -512 -331 -489 -466 -513 -361 -501 -514 -515 -398 -530 -413 -536 -366 -520 -430 -516 -496 -505 -509 -501 -438 -483 -452 -478 -425 -467 -481 -475 -475 -491 -508 -508 -516 -507 -502 -506 -505 -512 -477 -495 -488 -505 -485 -512 -509 -511 -471 -492 -487 -496 -451 -505 -470 -493 -511 -489 -485 -500 -471 -515 -462 -516 -455 -520 -498 -510 -525 -507 -530 -495 -467 -485 -456 -486 -479 -483 -460 -488 -456 -499 -501 -511 -499 -481 -505 -489 -475 -480 -503 -488 -479 -475 -465 -466 -476 -459 -463 -472 -448 -474 -458 -479 -475 -481 -475 -478 -475 -482 -503 -485 -498 -485 -478 -488 -468 -480 -487 -477 -493 -480 -455 -491 -452 -462 -485 -462 -493 -476 -471 -467 -479 -472 -477 -477 -511 -488 -505 -500 -502 -491 -506 -493 -466 -506 -517 -490 -495 -504 -513 -486 -508 -499 -505 -500 -502 -506 -503 -504 -485 -500 -523 -501 -530 -487 -507 -494 -473 -469 -467 -479 -461 -472 -447 -470 -486 -481 -509 -487 -520 -484 -506 -483 -490 -508 -466 -491 -471 -490 -469 -491 -484 -489 -513 -484 -498 -492 -477 -493 -489 -520 -480 -536 -504 -546 -543 -558 -557 -560 -561 -548 -576 -544 -558 -555 -529 -543 -552 -555 -539 -557 -543 -565 -557 -573 -558 -579 -577 -583 -554 -565 -574 -570 -589 -569 -607 -561 -563 -556 -534 -553 -526 -544 -538 -560 -548 -559 -575 -559 -579 -571 -572 -569 -585 -576 -552 -576 -553 -566 -559 -580 -556 -577 -580 -578 -595 -582 -586 -575 -585 -568 -567 -579 -541 -567 -557 -571 -590 -585 -590 -579 -600 -572 -556 -584 -543 -601 -546 -579 -565 -585 -610 -581 -575 -592 -572 -603 -600 -608 -576 -602 -592 -601 -574 -588 -558 -579 -586 -573 -561 -566 -555 -564 -536 -572 -564 -578 -589 -587 -573 -582 -589 -583 -551 -579 -596 -584 -539 -581 -570 -581 -547 -576 -553 -581 -566 -574 -552 -572 -525 -574 -579 -574 -575 -569 -533 -565 -544 -567 -440 -567 -441 -569 -478 -578 -478 -578 -596 -570 -524 -575 -326 -589 -487 -565 -542 -593 -538 -595 -505 -597 -496 -586 -483 -586 -551 -586 -444 -582 -479 -567 -425 -560 -442 -564 -486 -572 -426 -558 -541 -560 -406 -574 -453 -594 -507 -574 -565 -583 -414 -591 -556 -581 -598 -590 -517 -579 -569 -578 -556 -577 -605 -572 -485 -574 -562 -573 -596 -562 -524 -563 -499 -561 -567 -558 -579 -566 -567 -555 -548 -556 -597 -569 -650 -574 -257 -584 -711 -587 -611 -586 -585 -573 -536 -577 -617 -583 -574 -583 -524 -584 -590 -573 -608 -571 -573 -563 -448 -552 -594 -568 -586 -559 -552 -589 -528 -582 -589 -598 -649 -591 -528 -584 -575 -563 -566 -576 -623 -574 -552 -588 -495 -583 -660 -586 -606 -580 -520 -587 -600 -571 -559 -564 -577 -570 -515 -561 -626 -567 -601 -570 -518 -606 -575 -578 -614 -547 -624 -519 -538 -568 -606 -582 -612 -614 -610 -602 -525 -590 -667 -584 -558 -572 -630 -570 -572 -580 -586 -564 -644 -568 -518 -561 -540 -564 -611 -570 -576 -589 -617 -563 -650 -561 -649 -598 -544 -597 -618 -555 -598 -561 -562 -571 -658 -560 -561 -593 -783 -564 -634 -580 -509 -582 -781 -561 -564 -585 -759 -539 -548 -585 -616 -582 -711 -563 -747 -627 -599 -573 -757 -551 -825 -519 -397 -635 -796 -631 -663 -641 -652 -603 -634 -594 -649 -611 -791 -620 -666 -585 -655 -584 -662 -649 -648 -591 -658 -539 -650 -544 -706 -644 -592 -655 -604 -659 -653 -590 -606 -641 -577 -622 -624 -652 -587 -635 -605 -634 -593 -584 -570 -645 -596 -628 -584 -682 -576 -579 -553 -708 -590 -594 -630 -691 -567 -627 -558 -613 -539 -718 -580 -688 -614 -597 -560 -658 -557 -685 -580 -822 -602 -351 -517 -756 -613 -712 -616 -755 -623 -733 -612 -640 -607 -659 -633 -721 -629 -712 -611 -651 -586 -640 -617 -719 -577 -549 -577 -535 -573 -598 -586 -767 -596 -604 -607 -632 -585 -650 -601 -568 -594 -590 -596 -643 -600 -582 -590 -633 -587 -587 -558 -650 -574 -569 -598 -542 -584 -689 -569 -596 -568 -530 -565 -614 -555 -523 -560 -649 -566 -567 -564 -541 -567 -570 -585 -694 -594 -571 -576 -700 -549 -131 -542 -702 -562 -631 -558 -597 -566 -595 -589 -535 -582 -574 -585 -700 -582 -468 -569 -619 -549 -469 -577 -609 -568 -456 -578 -643 -565 -580 -575 -578 -582 -550 -585 -610 -584 -581 -570 -493 -593 -638 -590 -544 -582 -631 -592 -561 -587 -555 -586 -610 -583 -562 -580 -627 -580 -517 -572 -623 -576 -524 -572 -647 -568 -545 -580 -550 -561 -523 -569 -686 -576 -503 -568 -531 -582 -725 -546 -347 -573 -662 -552 -617 -587 -625 -597 -529 -601 -564 -604 -553 -608 -571 -596 -579 -599 -557 -602 -559 -609 -434 -603 -467 -583 -392 -570 -515 -563 -507 -579 -538 -590 -535 -585 -497 -586 -454 -589 -460 -588 -539 -587 -436 -582 -551 -561 -537 -573 -457 -572 -451 -567 -460 -570 -474 -562 -524 -565 -550 -568 -464 -569 -540 -589 -492 -591 -494 -578 -496 -583 -369 -574 -628 -589 -522 -587 -512 -599 -540 -619 -512 -634 -573 -600 -630 -590 -472 -592 -553 -586 -502 -572 -562 -567 -524 -562 -557 -553 -532 -558 -550 -568 -545 -573 -568 -580 -592 -582 -583 -579 -589 -573 -566 -565 -553 -570 -570 -577 -598 -566 -611 -576 -542 -576 -547 -578 -555 -573 -574 -570 -579 -578 -550 -568 -560 -578 -578 -574 -600 -587 -611 -584 -546 -566 -541 -579 -553 -591 -612 -587 -632 -594 -599 -598 -610 -607 -607 -594 -594 -595 -586 -591 -571 -581 -567 -576 -554 -582 -572 -579 -554 -575 -571 -584 -578 -583 -576 -589 -582 -587 -580 -588 -573 -577 -586 -584 -584 -591 -569 -580 -551 -578 -556 -585 -569 -580 -560 -573 -557 -573 -558 -589 -582 -534 -571 -558 -560 -562 -587 -569 -598 -570 -581 -564 -566 -568 -579 -543 -584 -554 -582 -533 -578 -555 -575 -565 -583 -565 -575 -567 -577 -571 -591 -555 -587 -566 -587 -547 -568 -542 -535 -531 -542 -560 -565 -557 -565 -572 -578 -571 -577 -573 -562 -560 -582 -564 -555 -567 -541 -575 -565 -572 -574 -597 -592 -585 -590 -588 -578 -579 -578 -568 -538 -571 -537 -568 -535 -580 -574 -590 -558 -584 -574 -579 -571 -558 -539 -557 -528 -528 -524 -538 -516 -534 -530 -533 -532 -540 -549 -552 -540 -554 -555 -523 -533 -519 -539 -512 -511 -501 -499 -486 -512 -487 -487 -495 -495 -490 -504 -502 -511 -501 -531 -507 -518 -498 -514 -493 -490 -496 -491 -494 -490 -512 -493 -492 -504 -491 -509 -491 -512 -491 -474 -499 -467 -503 -483 -511 -526 -525 -526 -504 -496 -478 -482 -454 -474 -450 -456 -454 -457 -508 -445 -508 -473 -506 -518 -505 -513 -509 -508 -511 -540 -508 -500 -492 -497 -495 -455 -495 -485 -476 -470 -464 -414 -474 -492 -486 -466 -492 -511 -487 -499 -491 -374 -488 -434 -492 -405 -479 -461 -477 -402 -489 -422 -478 -446 -480 -414 -484 -386 -487 -412 -511 -400 -503 -452 -518 -350 -511 -492 -494 -432 -489 -188 -488 -536 -467 -355 -497 -377 -501 -321 -512 -439 -510 -479 -515 -354 -508 -432 -507 -349 -496 -450 -486 -365 -479 -402 -475 -526 -495 -389 -511 -502 -514 -409 -502 -544 -497 -442 -496 -407 -526 -541 -521 -545 -512 -406 -507 -442 -488 -506 -496 -558 -490 -503 -486 -377 -500 -473 -487 -516 -495 -521 -486 -436 -505 -477 -519 -487 -506 -537 -458 -462 -368 -402 -474 -464 -492 -561 -494 -425 -506 -434 -494 -515 -506 -453 -495 -518 -495 -507 -480 -530 -530 -487 -459 -470 -504 -437 -444 -386 -448 -497 -474 -444 -470 -540 -485 -366 -455 -479 -434 -485 -469 -424 -466 -436 -424 -526 -461 -359 -525 -484 -534 -610 -543 -462 -529 -485 -515 -513 -540 -587 -559 -581 -569 -563 -576 -477 -551 -628 -546 -694 -561 -373 -573 -668 -619 -522 -566 -692 -571 -540 -577 -586 -601 -604 -598 -568 -577 -635 -573 -642 -580 -540 -569 -616 -557 -565 -553 -544 -553 -631 -575 -596 -589 -552 -588 -615 -577 -710 -571 -662 -578 -573 -568 -662 -569 -618 -568 -622 -571 -739 -571 -666 -578 -635 -541 -582 -543 -563 -550 -695 -666 -586 -662 -798 -708 -727 -696 -709 -648 -878 -561 -466 -694 -675 -704 -699 -661 -744 -687 -670 -631 -717 -666 -634 -678 -736 -695 -684 -547 -668 -678 -765 -553 -539 -558 -619 -568 -564 -605 -621 -632 -670 -569 -646 -547 -688 -672 -633 -571 -632 -547 -579 -457 -644 -624 -501 -630 -639 -568 -621 -529 -623 -533 -537 -597 -653 -517 -649 -478 -534 -468 -502 -583 -532 -545 -605 -580 -584 -633 -597 -539 -623 -674 -592 -200 -361 -679 -622 -511 -561 -573 -605 -489 -543 -512 -551 -632 -527 -518 -534 -478 -569 -534 -634 -447 -447 -479 -445 -399 -503 -533 -492 -458 -505 -513 -568 -491 -534 -425 -524 -557 -517 -527 -507 -468 -503 -516 -501 -368 
#avR[uV]
106 283 161 -206 209 454 262 -99 311 141 362 413 343 367 331 292 305 294 301 306 316 307 348 387 368 338 354 446 354 380 358 425 360 349 346 375 354 347 330 416 335 331 334 404 346 372 358 309 326 371 334 358 315 248 273 416 293 330 314 313 337 289 339 358 373 235 102 3 354 625 471 415 439 387 421 393 395 322 399 515 392 358 370 435 318 440 309 404 311 343 329 409 343 332 347 461 359 391 386 372 379 406 346 300 351 316 349 377 358 354 356 450 314 291 365 328 330 273 333 349 303 320 289 329 303 335 305 328 285 243 325 304 334 412 369 395 174 147 263 415 484 357 391 374 301 358 393 364 322 389 400 333 324 330 437 339 316 329 261 277 303 268 325 302 459 329 402 352 400 346 380 343 307 330 411 324 327 334 312 330 379 327 407 334 404 301 309 307 353 327 364 295 270 287 231 272 423 305 290 304 412 307 347 328 489 245 -104 284 449 379 675 415 586 420 528 408 490 402 531 387 433 396 464 362 391 347 283 315 348 286 255 302 328 319 430 360 471 355 394 369 376 362 442 362 404 352 338 355 377 344 337 352 351 343 319 350 435 334 321 333 316 313 304 309 255 310 395 315 333 324 288 327 318 323 431 269 373 276 -281 269 576 316 421 375 382 371 339 359 406 371 309 339 296 329 351 305 255 285 266 260 266 262 206 284 338 309 356 346 391 347 302 354 385 345 318 337 329 334 341 323 348 320 271 313 269 311 381 318 311 312 270 319 327 288 352 302 262 287 198 281 351 306 325 316 305 329 335 284 435 262 -74 307 213 301 567 375 429 416 394 413 454 406 353 389 385 399 418 389 354 368 311 337 301 339 361 349 254 347 367 380 444 395 400 411 399 403 345 404 464 400 355 387 394 386 359 390 360 378 336 371 454 364 471 378 329 364 331 363 366 356 358 347 269 354 351 338 369 350 408 347 426 308 313 275 79 306 -87 295 606 322 371 372 429 409 419 400 384 374 366 365 333 349 224 322 277 307 169 291 177 294 208 297 262 312 256 336 302 342 349 344 233 352 249 349 289 340 327 317 314 340 312 332 301 328 272 317 322 315 264 314 246 302 285 303 276 303 286 299 294 300 279 300 269 293 286 267 297 236 147 257 130 237 287 262 348 297 358 327 323 325 311 309 315 285 284 264 244 255 224 233 200 234 205 244 218 258 276 287 334 304 335 311 326 315 305 312 294 312 301 305 309 301 296 300 286 300 283 288 279 274 302 265 271 260 247 258 242 259 263 260 262 256 296 260 296 234 265 253 179 258 226 267 208 297 348 298 409 328 382 354 323 342 318 330 336 306 318 286 278 269 249 252 210 255 227 255 258 283 316 300 322 313 348 317 336 323 312 323 304 318 290 308 290 304 291 293 300 290 309 289 304 286 289 288 269 278 238 285 244 275 257 289 297 275 329 273 318 259 209 276 183 285 288 301 328 318 394 377 402 370 372 383 362 354 368 343 353 325 306 307 294 301 263 296 257 291 287 307 310 322 345 331 348 353 347 340 345 349 355 334 342 332 320 331 325 322 329 328 316 316 314 308 308 307 304 297 296 295 288 293 247 292 269 301 294 283 336 283 314 270 253 255 149 280 184 292 383 340 386 384 378 390 362 361 329 362 376 348 347 338 336 319 289 299 255 295 262 304 268 315 301 325 324 344 318 351 366 355 301 349 334 335 331 336 319 321 283 322 279 317 318 309 320 310 293 306 219 298 174 301 308 297 152 293 254 302 253 312 338 291 301 269 179 260 310 262 107 298 205 290 400 350 402 377 359 363 407 350 291 338 318 323 270 312 300 301 299 295 262 292 117 298 340 316 317 327 432 345 322 333 334 333 315 335 356 330 323 326 334 327 279 335 270 317 295 325 365 314 299 305 261 307 262 302 292 301 191 302 279 305 325 308 262 307 305 285 331 245 342 272 -128 308 455 331 454 403 338 402 412 391 353 370 408 371 362 354 351 337 337 310 279 290 315 288 251 313 269 341 306 356 440 375 329 345 380 349 347 338 327 334 374 330 261 335 337 326 321 326 333 332 260 331 308 318 359 312 310 290 256 292 276 292 305 305 328 332 260 317 305 314 419 280 92 122 164 375 550 429 380 412 413 371 377 344 417 344 412 347 276 315 413 310 325 286 217 268 318 271 246 313 445 360 363 358 370 337 379 336 373 334 522 352 327 345 477 323 330 312 334 336 285 345 411 305 356 321 457 309 243 320 354 295 290 301 303 291 253 289 383 302 357 319 403 325 405 314 271 13 36 358 354 469 402 453 390 412 412 389 360 390 304 378 393 369 397 346 340 319 361 322 339 354 250 388 257 326 327 343 373 346 342 355 376 359 358 339 363 337 342 325 363 322 342 337 329 327 357 420 310 330 337 392 328 286 319 378 318 373 326 321 298 355 270 388 291 292 317 422 312 330 322 387 317 430 221 -177 251 651 433 514 430 392 413 331 411 486 390 468 395 478 405 443 381 354 361 440 348 372 294 290 310 381 330 406 362 459 371 481 393 430 383 535 380 376 377 395 350 430 362 415 365 358 356 342 347 382 338 427 336 317 334 304 331 381 337 309 330 313 303 316 297 322 302 295 310 357 316 314 341 310 338 441 274 353 231 -334 271 661 334 425 373 341 386 370 367 401 361 333 363 262 343 381 314 308 309 316 297 138 285 343 294 282 314 364 329 320 343 427 343 313 342 311 344 357 339 343 337 255 330 378 321 337 319 244 316 400 319 286 311 300 305 285 310 300 303 321 293 264 286 295 280 225 273 309 278 296 296 268 293 342 268 460 280 -289 318 381 316 551 403 428 421 416 420 428 415 411 392 393 393 378 373 360 366 314 336 342 337 270 320 303 327 308 360 455 369 404 375 340 376 351 370 411 351 409 352 363 362 377 344 283 356 236 342 337 349 357 341 281 321 291 324 205 312 303 304 256 305 246 327 276 317 260 303 348 330 129 328 257 352 472 377 449 389 464 413 353 397 332 377 287 359 381 347 266 323 221 323 259 313 296 310 247 328 254 335 372 352 397 359 348 364 317 363 285 358 283 349 317 351 355 343 350 328 325 331 318 326 315 334 353 321 331 317 279 307 263 314 281 310 329 296 330 300 346 294 296 303 205 291 213 315 296 333 422 351 434 395 397 406 370 385 364 361 378 355 347 336 327 321 284 315 265 309 281 304 315 324 340 328 371 344 371 358 359 368 357 354 354 348 330 344 338 330 327 335 336 326 321 317 328 311 334 320 316 317 292 313 286 287 294 294 316 306 331 303 337 276 337 270 220 291 225 272 240 298 293 292 407 312 408 340 357 355 334 334 328 318 321 298 292 275 261 280 255 270 238 281 287 300 304 320 354 330 376 337 363 352 354 355 335 341 336 339 330 331 322 339 333 344 331 339 329 334 329 339 326 335 329 327 309 320 300 331 294 338 322 327 364 293 332 275 237 254 180 261 198 291 312 312 385 355 368 359 337 352 342 324 355 302 333 287 282 268 255 254 227 261 215 263 250 267 290 293 322 303 357 316 351 330 326 328 332 323 317 317 310 319 311 304 327 316 318 306 322 301 311 305 277 298 270 299 282 309 311 292 323 282 288 263 222 272 107 49 151 327 442 367 349 391 278 372 341 360 321 345 330 337 342 306 272 291 281 281 269 264 191 279 265 282 261 308 287 323 315 326 288 339 283 338 271 334 274 318 259 310 273 312 262 316 247 310 183 296 258 293 215 296 210 298 318 314 363 317 367 284 243 256 361 259 73 153 76 289 433 364 421 364 319 335 317 336 345 319 346 302 269 281 348 253 331 232 218 249 97 271 229 284 261 319 416 317 315 319 235 326 374 311 285 313 348 304 250 311 287 295 382 316 260 308 257 305 299 292 263 255 293 270 282 285 295 308 294 309 268 321 297 324 355 341 124 -169 4 412 574 467 343 409 347 354 425 354 287 341 411 345 361 339 320 316 261 288 286 259 256 257 239 308 380 349 391 385 297 375 345 371 400 353 323 354 380 334 367 345 366 347 393 325 260 273 267 278 246 277 282 255 272 255 227 289 312 284 304 300 269 296 293 274 312 229 307 181 21 333 471 396 525 443 322 414 451 377 447 378 456 372 492 352 408 327 340 309 292 293 275 296 289 301 356 339 422 354 379 363 391 348 496 351 414 345 342 338 454 342 322 336 379 336 354 325 384 317 424 311 310 297 297 279 365 317 330 373 300 351 437 384 375 416 435 419 500 -99 -165 231 535 469 365 447 346 311 370 371 337 371 344 346 287 245 381 341 176 266 233 207 223 113 198 283 254 289 309 363 293 288 379 321 354 371 319 345 308 287 310 308 363 329 387 354 321 283 361 342 201 341 348 227 395 334 240 314 319 276 319 162 345 392 284 284 342 330 355 377 284 532 357 -263 -153 222 438 510 401 474 320 376 330 306 353 325 394 350 362 370 281 296 242 186 269 235 229 260 290 173 287 361 309 370 330 401 341 312 319 457 361 284 328 316 332 346 291 337 
#avL[uV]
1178 42 989 187 809 -501 617 -151 433 -165 247 261 261 270 266 249 269 318 262 240 257 273 249 254 254 274 275 198 276 280 255 258 245 245 262 346 276 276 273 221 274 360 273 263 249 360 246 332 281 202 304 402 273 289 310 193 292 345 296 290 277 303 246 338 229 438 357 270 281 330 273 318 259 370 251 271 267 486 267 311 275 347 281 337 325 353 279 374 271 272 256 361 293 334 286 308 290 310 249 314 246 343 281 403 298 347 284 284 263 334 272 301 299 412 271 273 297 447 269 274 295 276 321 308 282 297 313 318 340 403 270 303 303 280 246 296 399 381 343 271 198 329 264 262 403 264 257 253 332 235 266 271 360 259 257 266 307 279 373 304 370 267 315 278 179 293 323 241 288 244 305 291 344 263 272 263 272 252 272 263 276 270 328 256 175 280 366 289 321 285 367 273 289 240 392 294 332 307 286 282 227 268 261 292 367 332 326 242 455 232 168 244 137 267 243 254 279 253 228 252 273 255 199 274 248 260 351 279 265 287 277 264 289 278 257 250 227 255 206 253 311 255 236 249 202 260 292 256 174 269 333 246 273 257 321 257 155 270 272 276 349 269 218 272 344 277 211 280 316 272 317 270 212 267 274 293 367 287 333 289 230 269 215 245 277 247 255 265 217 268 281 267 261 262 232 277 396 279 225 296 301 286 286 280 259 265 233 254 228 258 272 253 283 257 295 268 272 270 224 275 231 267 321 270 291 259 211 262 300 277 281 275 307 278 206 265 260 281 309 281 248 269 276 267 283 272 240 291 236 278 283 292 437 246 115 256 263 246 236 255 187 256 294 269 261 256 210 264 236 263 329 259 286 267 167 251 274 264 236 249 220 249 240 241 272 245 282 260 184 262 203 243 257 236 243 214 193 224 297 232 115 239 82 232 282 228 207 218 132 210 202 229 198 220 166 234 119 218 149 229 144 237 163 243 401 230 292 219 46 223 84 190 170 181 89 197 118 214 91 207 156 212 260 217 243 222 244 216 250 211 215 201 229 199 227 200 230 209 212 208 259 203 254 209 213 200 202 220 206 214 225 217 202 205 229 213 177 221 221 213 260 215 221 223 215 235 203 237 194 240 234 232 259 234 254 238 201 246 268 236 293 244 201 235 168 225 196 219 212 198 223 212 198 218 235 234 237 228 236 233 256 227 244 232 227 226 205 215 188 208 188 202 193 203 224 207 226 207 207 213 196 209 217 207 226 210 199 224 200 209 213 214 234 226 229 220 238 224 226 227 252 237 230 245 228 251 247 243 260 250 274 233 267 229 210 215 176 210 188 198 214 208 218 213 196 222 233 232 259 231 256 244 249 224 236 232 217 212 177 202 203 204 207 206 222 201 223 200 215 222 204 214 207 215 206 222 213 221 230 218 221 226 213 225 231 250 240 259 256 272 278 273 269 282 256 274 272 278 313 278 305 265 269 266 240 259 209 235 216 244 232 242 252 260 231 252 253 265 288 273 308 270 290 269 272 269 251 254 248 259 238 254 257 243 260 258 256 252 261 264 243 265 255 258 256 274 252 269 276 275 289 282 285 277 286 277 277 286 261 278 294 282 308 287 295 293 282 287 259 303 280 323 334 294 331 292 266 266 238 252 239 257 269 275 267 270 256 277 257 272 250 274 294 280 293 277 285 271 267 271 272 270 279 268 270 261 258 259 262 259 279 270 239 268 267 275 269 270 275 277 266 276 254 274 247 277 325 281 343 276 246 275 332 278 202 274 204 270 189 287 207 298 357 297 237 300 191 293 263 279 206 269 202 257 199 266 168 264 217 270 254 278 198 280 209 274 169 272 200 276 306 280 149 260 247 256 88 258 179 279 213 264 266 269 133 277 255 273 281 278 248 267 291 275 269 270 271 272 213 278 291 275 316 270 247 271 279 269 285 266 271 270 294 263 258 274 282 304 316 294 257 284 305 274 231 238 269 229 195 237 286 252 226 251 212 261 267 261 288 273 289 276 178 270 320 269 305 248 261 264 176 249 277 276 296 269 222 268 268 255 237 267 337 263 245 278 211 273 328 273 324 269 236 281 270 271 264 278 304 281 248 274 316 272 286 261 258 295 278 276 251 270 422 328 321 238 179 222 269 254 251 265 205 270 291 265 213 256 334 270 222 279 277 280 374 292 229 285 282 266 235 247 251 262 277 254 297 253 300 281 147 272 300 244 209 258 256 272 326 252 278 272 381 270 298 274 153 282 464 260 245 291 424 253 259 293 335 292 341 271 381 310 248 267 365 256 483 382 279 297 420 238 296 254 294 246 270 251 307 263 441 275 302 254 293 264 326 327 305 282 323 227 363 213 401 320 280 319 266 321 318 265 266 301 253 297 286 320 269 313 272 314 273 269 262 320 268 261 282 346 263 238 250 387 282 256 313 332 262 310 269 282 269 344 289 369 301 237 264 328 256 320 276 401 341 352 262 241 243 277 246 370 260 384 253 237 260 260 276 302 268 312 267 311 258 259 289 353 285 266 278 210 264 245 258 345 261 212 259 259 247 220 260 238 257 244 271 266 269 229 259 296 262 269 244 296 261 213 280 247 270 364 261 256 257 242 258 304 264 234 271 326 274 278 268 227 267 270 268 365 276 207 294 348 296 266 271 195 254 261 232 277 231 261 258 200 256 264 257 394 265 160 269 310 257 193 283 388 283 170 286 341 266 252 267 273 265 199 267 301 267 280 255 191 275 307 273 280 271 284 283 251 281 294 282 257 277 278 279 320 282 245 273 317 280 232 282 352 283 261 295 300 284 238 287 366 284 242 280 227 302 313 270 405 270 306 256 187 239 255 237 189 240 209 245 209 259 231 250 244 262 237 268 262 289 154 283 215 277 142 264 232 242 152 249 201 255 231 250 197 254 134 266 140 265 222 259 138 264 271 243 284 259 174 254 160 254 204 267 210 259 290 268 260 274 220 274 282 278 230 284 240 281 198 272 212 266 342 265 155 251 159 254 172 257 207 276 263 261 329 263 164 270 282 278 265 267 292 268 245 267 294 251 271 251 226 249 210 250 252 253 285 255 294 255 300 255 266 248 237 256 252 268 285 258 299 269 249 265 233 272 250 271 290 273 302 276 272 271 255 286 268 280 276 293 310 286 306 278 299 276 266 276 247 264 257 248 251 245 272 262 273 265 256 269 266 275 265 275 283 274 283 282 288 282 257 268 258 274 248 265 246 263 257 256 256 263 253 259 274 266 268 278 263 268 245 270 257 280 262 279 253 269 259 271 273 285 293 257 281 271 261 268 274 275 279 289 267 288 314 280 322 271 318 266 290 254 230 260 227 253 258 246 264 258 268 269 282 267 294 287 309 270 298 271 282 258 263 270 271 258 246 264 245 260 251 253 244 242 269 253 247 256 240 265 262 259 264 276 278 269 278 274 268 265 270 258 238 264 248 266 251 269 283 273 257 274 249 288 262 280 285 290 305 265 294 258 231 244 204 221 215 225 243 238 233 253 238 241 233 245 262 250 255 249 261 234 276 233 240 237 226 221 217 225 204 217 223 215 225 209 219 208 208 214 213 211 211 232 205 210 218 215 221 217 228 215 217 225 215 228 221 228 239 247 232 236 227 226 251 204 302 313 266 177 121 197 159 186 216 193 218 198 224 209 215 214 234 228 238 223 232 230 207 239 268 217 220 207 180 201 225 202 192 205 239 196 233 199 144 199 188 210 173 204 209 202 171 208 193 204 243 212 181 216 181 217 204 233 141 220 157 229 78 241 247 242 143 237 104 289 363 206 49 190 72 194 81 216 170 214 187 226 92 230 189 239 87 246 172 248 164 234 252 220 279 229 160 224 168 226 149 216 290 209 144 216 162 238 232 239 284 228 161 232 140 207 249 218 290 215 227 219 151 247 208 230 245 228 243 210 180 224 223 229 217 217 225 173 284 361 299 149 60 135 249 166 145 202 113 193 243 209 134 199 208 201 220 202 267 253 222 215 224 249 208 179 99 161 177 163 185 165 232 178 74 164 197 148 173 184 134 176 144 144 197 183 139 256 229 261 334 268 205 269 227 259 271 260 284 277 284 276 287 283 211 276 315 294 367 330 268 263 265 266 129 202 358 221 180 244 216 261 225 262 180 256 272 266 311 280 259 280 324 270 279 264 230 245 262 254 257 260 218 267 213 257 325 255 325 265 203 255 335 258 274 258 289 266 362 269 288 277 321 257 288 267 239 254 356 313 289 320 379 339 357 313 314 276 408 471 432 405 238 293 342 272 385 360 317 287 369 313 303 335 409 398 322 239 413 375 457 310 293 362 365 284 296 309 311 292 356 283 295 249 339 318 315 256 320 267 279 189 302 303 182 295 319 285 285 225 367 229 228 334 292 220 366 201 241 213 216 356 226 212 312 293 267 309 270 215 325 239 265 282 347 397 247 128 220 192 294 179 242 231 236 311 198 213 219 173 286 252 354 242 201 241 219 169 232 313 225 162 224 199 261 167 230 162 233 189 207 253 216 193 211 213 230 107 
#avF[uV]
-1284 -325 -1151 18 -1018 47 -880 250 -744 23 -610 -675 -604 -637 -597 -541 -574 -613 -563 -547 -574 -581 -597 -641 -623 -612 -629 -645 -630 -661 -613 -684 -606 -595 -609 -721 -631 -624 -603 -637 -609 -692 -608 -667 -596 -733 -605 -641 -607 -574 -639 -761 -589 -538 -584 -609 -586 -675 -610 -604 -614 -593 -586 -696 -602 -674 -460 -273 -635 -955 -745 -734 -699 -757 -673 -665 -663 -808 -666 -826 -667 -705 -652 -773 -644 -794 -588 -779 -582 -616 -586 -770 -636 -667 -634 -769 -649 -702 -636 -687 -626 -750 -628 -703 -650 -663 -634 -662 -622 -688 -628 -752 -613 -704 -636 -601 -628 -721 -602 -624 -599 -597 -611 -637 -585 -633 -619 -646 -626 -646 -595 -608 -637 -693 -615 -691 -573 -529 -606 -686 -683 -686 -655 -636 -704 -623 -651 -618 -655 -625 -667 -604 -685 -589 -695 -606 -623 -609 -635 -582 -674 -536 -640 -580 -638 -622 -726 -594 -689 -590 -685 -634 -652 -594 -683 -588 -599 -587 -585 -594 -656 -597 -736 -590 -579 -581 -676 -596 -674 -613 -732 -569 -559 -528 -623 -567 -756 -612 -577 -587 -640 -576 -608 -621 -856 -578 -222 -527 -905 -611 -844 -659 -723 -688 -771 -662 -770 -656 -760 -639 -706 -651 -663 -636 -640 -608 -634 -594 -613 -573 -532 -566 -617 -598 -687 -611 -699 -611 -601 -622 -687 -618 -678 -612 -607 -613 -631 -612 -552 -614 -671 -598 -624 -600 -641 -608 -591 -604 -594 -609 -666 -583 -523 -581 -599 -587 -607 -595 -650 -596 -606 -597 -531 -591 -706 -562 -741 -563 -51 -559 -806 -585 -637 -620 -660 -619 -595 -624 -623 -639 -591 -607 -558 -592 -583 -582 -651 -564 -491 -556 -567 -549 -493 -564 -597 -574 -590 -600 -619 -606 -574 -607 -669 -602 -613 -605 -601 -605 -566 -599 -579 -587 -592 -584 -560 -571 -593 -581 -611 -589 -551 -595 -635 -567 -559 -567 -523 -568 -508 -563 -600 -575 -602 -583 -588 -601 -575 -575 -671 -540 -209 -600 -651 -547 -682 -632 -692 -663 -631 -668 -641 -663 -647 -659 -647 -655 -628 -653 -591 -632 -641 -597 -588 -607 -529 -600 -529 -611 -604 -630 -664 -644 -641 -652 -671 -649 -628 -664 -648 -662 -558 -631 -651 -623 -603 -605 -554 -602 -634 -604 -570 -604 -553 -610 -611 -592 -539 -581 -498 -566 -561 -577 -467 -574 -517 -573 -489 -569 -557 -577 -571 -546 -477 -519 -480 -537 -204 -515 -653 -546 -456 -562 -600 -591 -508 -598 -502 -589 -457 -573 -489 -561 -484 -539 -520 -529 -414 -508 -428 -506 -423 -499 -491 -512 -484 -537 -532 -552 -562 -553 -493 -555 -503 -559 -502 -541 -530 -537 -521 -554 -538 -550 -504 -533 -502 -530 -500 -537 -485 -527 -506 -518 -506 -527 -491 -538 -490 -537 -488 -540 -513 -532 -528 -527 -540 -505 -499 -482 -415 -493 -424 -481 -489 -497 -516 -523 -554 -547 -536 -523 -535 -521 -514 -503 -519 -498 -481 -484 -461 -466 -457 -462 -450 -477 -446 -484 -481 -503 -523 -513 -524 -514 -519 -519 -530 -520 -521 -520 -509 -519 -506 -511 -513 -508 -512 -510 -483 -512 -479 -483 -515 -479 -505 -487 -477 -479 -481 -484 -489 -488 -514 -494 -527 -505 -524 -485 -512 -496 -439 -508 -501 -501 -475 -526 -559 -514 -585 -538 -570 -553 -538 -551 -537 -543 -532 -528 -552 -519 -537 -500 -505 -497 -460 -479 -464 -487 -475 -496 -493 -502 -526 -517 -556 -524 -558 -525 -536 -523 -520 -540 -495 -523 -498 -519 -497 -515 -513 -512 -539 -508 -525 -512 -503 -514 -501 -529 -479 -544 -500 -547 -536 -563 -566 -558 -585 -547 -591 -538 -523 -554 -488 -550 -558 -567 -569 -577 -604 -612 -619 -615 -605 -626 -614 -614 -600 -595 -607 -590 -595 -581 -603 -571 -554 -566 -529 -560 -538 -562 -559 -581 -584 -585 -605 -596 -607 -598 -601 -601 -616 -599 -585 -598 -575 -590 -582 -596 -582 -597 -593 -591 -603 -590 -593 -585 -591 -574 -574 -582 -550 -572 -541 -575 -577 -589 -590 -576 -619 -570 -574 -573 -534 -578 -484 -574 -516 -585 -649 -606 -625 -636 -618 -648 -631 -636 -597 -633 -633 -625 -604 -610 -586 -594 -584 -579 -548 -572 -548 -575 -536 -586 -574 -596 -604 -613 -589 -612 -625 -615 -563 -609 -614 -605 -570 -604 -587 -597 -552 -593 -555 -594 -584 -585 -574 -584 -540 -584 -544 -579 -518 -578 -554 -573 -484 -572 -457 -577 -457 -583 -528 -579 -509 -568 -537 -557 -548 -562 -298 -591 -468 -569 -607 -620 -605 -635 -559 -630 -576 -614 -508 -608 -573 -601 -468 -593 -510 -576 -468 -568 -463 -569 -423 -578 -490 -576 -565 -584 -520 -604 -501 -612 -547 -597 -581 -605 -489 -608 -579 -599 -616 -606 -527 -602 -561 -592 -564 -595 -636 -586 -513 -583 -552 -583 -578 -573 -539 -573 -470 -572 -565 -571 -597 -579 -556 -570 -564 -560 -613 -549 -659 -567 -128 -592 -761 -606 -685 -641 -608 -631 -608 -629 -639 -623 -635 -622 -574 -615 -618 -598 -625 -583 -569 -567 -493 -559 -571 -583 -574 -590 -567 -620 -616 -624 -606 -621 -677 -618 -570 -607 -595 -589 -612 -597 -598 -598 -583 -604 -532 -600 -661 -606 -585 -601 -544 -599 -630 -584 -574 -568 -561 -573 -525 -567 -622 -578 -615 -594 -519 -613 -584 -591 -670 -550 -514 -450 -486 -614 -730 -651 -649 -667 -664 -637 -583 -614 -709 -610 -625 -603 -611 -585 -636 -590 -602 -566 -591 -560 -547 -556 -528 -580 -681 -608 -614 -621 -648 -591 -677 -589 -673 -616 -669 -624 -627 -589 -687 -582 -587 -584 -661 -588 -563 -617 -793 -576 -654 -595 -611 -591 -707 -581 -600 -586 -714 -555 -563 -585 -588 -581 -725 -573 -739 -630 -651 -593 -771 -570 -755 -396 -315 -655 -774 -708 -698 -708 -684 -659 -682 -640 -667 -653 -745 -654 -696 -624 -690 -611 -666 -647 -667 -604 -663 -581 -613 -602 -658 -646 -608 -663 -640 -668 -661 -620 -643 -660 -612 -636 -649 -658 -611 -638 -635 -637 -616 -606 -592 -647 -626 -681 -593 -676 -600 -630 -578 -674 -602 -635 -631 -705 -588 -631 -568 -638 -540 -732 -581 -662 -619 -659 -576 -658 -579 -707 -593 -832 -563 -174 -514 -893 -676 -791 -677 -763 -674 -715 -664 -723 -651 -728 -672 -780 -674 -756 -649 -666 -620 -700 -637 -725 -580 -556 -588 -592 -595 -651 -620 -805 -633 -693 -652 -689 -631 -756 -641 -614 -634 -640 -622 -697 -631 -644 -625 -654 -618 -612 -592 -678 -600 -640 -617 -565 -605 -669 -592 -638 -595 -552 -589 -617 -568 -550 -568 -648 -576 -573 -578 -584 -584 -585 -609 -676 -614 -649 -569 -702 -528 68 -542 -857 -589 -686 -605 -618 -618 -632 -626 -602 -617 -597 -620 -656 -608 -542 -584 -618 -566 -509 -581 -526 -569 -513 -580 -624 -581 -617 -596 -593 -608 -626 -611 -614 -610 -591 -600 -548 -614 -650 -611 -535 -601 -662 -605 -589 -600 -538 -598 -657 -597 -565 -590 -620 -587 -530 -584 -617 -583 -553 -576 -617 -569 -557 -575 -525 -557 -547 -566 -663 -580 -511 -573 -570 -571 -774 -550 -116 -589 -687 -572 -738 -642 -683 -658 -605 -661 -637 -660 -620 -652 -625 -644 -623 -636 -598 -634 -577 -625 -496 -620 -485 -597 -446 -591 -540 -603 -608 -618 -606 -630 -571 -627 -549 -625 -546 -618 -549 -617 -586 -621 -516 -608 -555 -599 -521 -601 -511 -603 -517 -596 -485 -588 -501 -584 -496 -580 -564 -578 -476 -579 -528 -606 -507 -602 -501 -585 -546 -602 -341 -595 -600 -618 -628 -629 -609 -644 -637 -670 -560 -674 -596 -639 -616 -623 -545 -617 -548 -601 -487 -591 -551 -582 -541 -577 -541 -579 -526 -586 -599 -602 -607 -609 -600 -617 -603 -618 -580 -614 -583 -604 -584 -599 -593 -599 -603 -597 -611 -590 -618 -595 -564 -599 -587 -594 -582 -589 -570 -581 -566 -591 -553 -581 -585 -582 -599 -581 -623 -588 -606 -590 -512 -570 -513 -592 -563 -609 -670 -615 -691 -643 -648 -651 -643 -648 -637 -626 -635 -624 -613 -611 -592 -596 -568 -590 -549 -591 -570 -586 -573 -593 -599 -602 -620 -609 -617 -621 -617 -624 -614 -618 -607 -607 -605 -610 -607 -608 -591 -603 -582 -597 -578 -598 -591 -591 -587 -589 -576 -589 -565 -599 -579 -544 -575 -566 -578 -575 -606 -578 -617 -565 -604 -558 -534 -571 -547 -543 -558 -564 -583 -546 -637 -572 -635 -594 -616 -602 -598 -593 -596 -588 -604 -566 -586 -562 -571 -550 -553 -541 -521 -539 -550 -570 -576 -578 -601 -594 -622 -597 -614 -606 -599 -597 -604 -594 -584 -595 -570 -597 -585 -599 -597 -620 -609 -608 -608 -608 -598 -604 -597 -594 -568 -591 -557 -587 -551 -601 -578 -611 -580 -601 -613 -581 -594 -556 -522 -545 -486 -527 -492 -549 -543 -557 -590 -577 -583 -585 -580 -590 -576 -578 -594 -543 -567 -533 -545 -518 -511 -503 -488 -496 -492 -496 -491 -505 -516 -514 -539 -528 -562 -534 -574 -545 -552 -537 -552 -532 -526 -531 -524 -531 -523 -537 -533 -527 -537 -522 -543 -519 -540 -521 -494 -523 -486 -527 -503 -538 -550 -540 -556 -519 -516 -490 -473 -476 -409 -362 -418 -505 -564 -564 -508 -577 -494 -566 -560 -559 -546 -555 -546 -552 -576 -534 -511 -514 -513 -512 -476 -504 -459 -497 -485 -489 -441 -509 -512 -526 -507 -532 -527 -535 -516 -537 -416 -533 -462 -528 -433 -514 -482 -514 -433 -525 -440 -514 -426 -508 -440 -509 -397 -514 -414 -532 -459 -534 -521 -547 -446 -526 -491 -499 -504 -496 -177 -442 -440 -495 -483 -555 -494 -558 -400 -552 -487 -550 -532 -546 -438 -532 -459 -521 -436 -499 -503 -481 -383 -484 -350 -492 -509 -514 -422 -543 -584 -544 -464 -536 -526 -536 -519 -528 -448 -551 -580 -543 -534 -540 -448 -528 -523 -524 -510 -526 -547 -520 -527 -511 -415 -503 -501 -500 -528 -514 -538 -519 -474 -533 -492 -550 -514 -541 -581 -514 -409 -191 -303 -562 -635 -603 -592 -575 -492 -557 -538 -548 -530 -550 -546 -544 -569 -541 -540 -518 -528 -542 -508 -474 -481 -506 -448 -487 -480 -510 -568 -548 -482 -540 -577 -550 -474 -518 -520 -503 -554 -519 -501 -522 -510 -491 -591 -508 -399 -530 -497 -539 -580 -546 -488 -524 -500 -514 -498 -549 -596 -561 -588 -577 -556 -580 -505 -550 -628 -524 -674 -511 -290 -596 -737 -663 -654 -646 -680 -636 -631 -621 -663 -639 -681 -634 -672 -609 -680 -594 -652 -590 -551 -573 -600 -566 -568 -565 -586 -585 -685 -609 -636 -624 -610 -615 -710 -608 -740 -601 -667 -603 -657 -597 -657 -595 -653 -594 -644 -591 -746 -587 -712 -589 -631 -554 -585 -547 -605 -571 -686 -686 -589 -672 -817 -724 -733 -730 -750 -696 -909 -371 -267 -636 -774 -763 -707 -719 -731 -671 -688 -659 -707 -685 -647 -681 -696 -644 -704 -581 -589 -641 -690 -518 -516 -475 -563 -568 -550 -599 -620 -656 -649 -571 -674 -571 -693 -689 -634 -601 -628 -554 -590 -497 -665 -633 -570 -650 -640 -568 -646 -568 -568 -570 -577 -561 -687 -555 -607 -516 -560 -490 -536 -519 -572 -605 -596 -577 -609 -640 -625 -593 -609 -771 -622 -18 -193 -620 -685 -638 -621 -667 -614 -555 -573 -537 -590 -637 -593 -564 -582 -543 -567 -549 -597 -428 -470 -477 -448 -430 -523 -486 -513 -524 -533 -570 -591 -569 -571 -475 -553 -647 -568 -537 -544 -509 -543 -560 -521 -444 
