ADC Sampling rate (Hz):
100
Fragment duration (sec):
21
Number of samples exported by each lead:
2099

#I[uV]
-10395 -9376 -8355 -7315 -6278 -5255 -4249 -3191 -2176 -1126 -151 -128 -106 -131 -117 -128 -124 -115 -116 -110 -112 -109 -94 -88 -99 -102 -69 -93 -85 -93 -71 -79 -70 -77 -69 -67 -60 -47 -76 -19 -69 -41 -65 -83 -65 -106 -52 -35 -88 0 -122 62 294 84 -135 -329 -142 -186 -145 -87 -140 -82 -112 -216 -121 -147 -106 -56 -89 -98 -49 -69 -44 -50 -45 -25 -65 -45 -94 -116 -105 -88 -106 -148 -107 -184 -114 -120 -114 -137 -106 -75 -102 -168 -107 -169 -103 -130 -102 -126 -89 -190 -89 -73 -92 -115 -125 -100 -121 -132 -113 -199 -99 -133 -71 -183 -99 66 80 166 -134 -283 -138 -157 -124 -147 -139 -61 -100 -208 -101 -35 -65 -215 -63 -77 -25 14 -12 5 -26 53 -54 -33 -79 -96 -84 -112 -69 -81 -89 -61 -58 -40 -59 -105 -19 -49 -37 -38 -32 -139 -59 -11 -33 -68 -43 -58 -17 -28 -38 -131 -75 9 -69 -50 -90 -160 -74 145 260 138 -150 -303 -137 -65 -121 -143 -50 -84 -76 -80 -68 -80 -107 -8 28 -45 -43 13 -8 -59 3 -47 -55 -26 -79 -85 -20 -86 -118 -40 -83 -76 -59 -19 -79 -33 -35 -76 -23 -117 -126 -4 -51 -51 -30 31 -77 -85 47 -14 -56 -88 -55 -24 -90 3 -77 -139 -40 142 405 93 -266 -238 -176 -75 -112 -106 -16 -97 -96 -102 -68 -37 -62 -66 -31 21 31 -39 24 -7 -55 -11 -47 -88 -105 -14 -88 -134 -103 -138 -58 -78 -102 -3 -62 -183 -53 -150 -85 -53 -140 -34 -107 -144 -21 -152 -107 -78 -41 -69 -23 -30 -146 -26 -118 -228 -88 -109 -138 -31 -178 -178 183 87 86 -245 -388 -162 -182 -180 -120 -156 -140 -132 -176 -137 -123 -125 -99 -233 -4 -148 -54 -12 -52 -45 -61 -53 -133 -150 -163 -154 -37 -101 -125 -100 -30 -79 -209 -144 -73 52 -180 -117 -131 -100 -77 -111 -55 -68 -68 -74 -203 -61 -101 -104 -2 -108 -114 -33 -102 -62 -110 -48 -78 -98 -116 -71 -173 47 256 117 -295 -178 -434 -117 11 -135 -121 -142 -268 -112 -83 -107 -97 -85 -106 -74 48 -56 -89 -33 -15 -47 -92 -90 -46 -121 -95 -67 -172 -99 -148 -125 -38 -133 -115 -98 -168 -107 -39 -100 -95 -82 -157 -114 -57 -84 -101 -87 -89 -117 -136 -115 -116 -108 -115 -83 -104 -87 -74 -80 -73 -81 -112 -105 -76 -84 -154 -44 -248 -28 482 -68 -210 -98 -220 -202 -160 -193 -241 -183 -161 -160 -65 -157 -127 -121 -130 -96 -133 -72 -23 -79 -85 -86 -69 -74 -147 -111 -138 -128 -126 -119 -138 -146 -129 -118 -60 -127 -227 -124 -20 -126 -141 -134 -102 -120 -231 -127 -88 -149 -85 -124 -115 -109 -127 -85 -55 -96 -91 -90 -109 -121 -102 -127 -178 -95 -236 -97 417 -130 -273 -114 -239 -170 -218 -189 -178 -185 -237 -170 -121 -153 -161 -134 -185 -143 -116 -116 -36 -108 -96 -123 -207 -106 -165 -123 -225 -131 -129 -142 -247 -125 -124 -139 -164 -152 -82 -129 -176 -131 -262 -140 -238 -133 -239 -143 -297 -129 -94 -145 -213 -125 -178 -124 -246 -111 -225 -114 -192 -86 -104 -101 174 -97 -342 -88 -298 -127 -199 -152 -182 -138 -220 -123 -116 -112 -116 -83 -3 -82 49 -67 -40 -75 -16 -75 -34 -82 -155 -111 -129 -104 -93 -121 -138 -108 -31 -104 -42 -108 -124 -112 -120 -108 -51 -105 -118 -99 -64 -95 -1 -94 -84 -79 -43 -86 -78 -77 -25 -81 -63 -69 -100 -46 -60 -49 -12 -66 69 -72 -132 -116 -114 -128 -130 -156 -153 -156 -126 -150 -109 -140 -130 -120 -101 -104 -107 -99 -44 -88 -73 -105 -100 -94 -146 -109 -147 -123 -134 -133 -139 -129 -102 -124 -106 -100 -99 -119 -127 -116 -103 -106 -110 -114 -102 -106 -129 -106 -121 -107 -74 -103 -53 -108 -63 -104 -110 -89 -149 -75 -125 -76 -12 -77 -4 -80 -7 -105 -128 -115 -193 -136 -195 -148 -155 -136 -120 -126 -112 -96 -109 -83 -103 -89 -78 -80 -44 -103 -54 -96 -94 -111 -116 -104 -140 -113 -122 -113 -117 -103 -114 -106 -97 -99 -104 -103 -113 -97 -96 -98 -96 -85 -85 -93 -107 -87 -97 -90 -82 -93 -52 -88 -60 -82 -83 -71 -113 -57 -95 -48 0 -71 31 64 -2 -86 -29 -80 -128 -111 -158 -125 -125 -122 -121 -107 -83 -92 -84 -57 -52 -35 -33 -36 -32 -50 -31 -63 -68 -83 -90 -120 -100 -103 -116 -99 -100 -102 -104 -98 -103 -106 -92 -106 -98 -94 -98 -103 -109 -100 -97 -87 -143 -83 -97 -95 -80 -102 -36 -115 -57 -105 -116 -94 -118 -81 -114 -56 -18 -29 -15 37 -40 -88 -94 -97 -62 -111 -88 -81 -108 -87 -117 -69 -72 -64 -44 -40 -23 -31 -28 -37 -21 -65 -42 -74 -45 -87 -91 -87 -8 -93 -92 -93 -35 -81 -46 -84 -90 -72 -105 -74 -65 -90 -88 -73 57 -67 -56 -63 54 -47 -66 -36 -39 -50 -58 -52 -94 -23 -23 -9 -25 13 7 -98 -186 -148 -232 -173 -147 -148 -115 -142 -152 -120 -227 -111 -113 -98 -111 -98 -191 -87 -170 -89 -177 -87 -244 -122 -116 -121 -151 -125 -144 -117 -110 -106 -158 -131 -178 -127 -59 -141 -151 -132 -121 -103 -187 -114 -24 -122 -186 -77 -217 -106 -20 -99 -181 -109 -116 -141 -65 -116 -119 -69 -112 -68 137 -45 -262 -137 -185 -157 -114 -180 -143 -155 -200 -105 -98 -122 -98 -85 -183 -79 -35 -57 -33 -53 -77 -63 -98 -94 -48 -106 -91 -95 -63 -69 -239 -98 31 -79 -137 -65 -113 -78 -55 -62 -183 -67 -44 -76 -64 -121 -73 -80 -169 -29 -60 -17 -112 -25 -63 -126 -55 -46 -19 -107 -145 -62 -111 -34 161 374 45 -141 -209 -89 -58 -51 -57 -54 -96 -39 0 -54 3 -63 -155 18 68 -44 32 121 -25 8 17 -67 18 8 -98 -51 19 -104 -56 -9 -32 -74 -86 -26 -17 -126 -84 -9 -77 43 5 -199 -54 10 -107 44 -21 -139 -40 -49 11 -76 -78 58 15 -111 -64 -54 -13 19 -103 -112 -125 -85 210 430 69 -208 -120 -235 -221 -72 -196 -218 -16 -168 -234 -109 -64 -141 -230 -135 -25 -16 -120 -136 -104 -26 -111 -78 -123 -114 -117 -126 -180 -94 -80 -119 -155 -136 -195 -121 -74 -239 -136 -82 -177 -100 -123 -146 -134 -17 -187 -114 -40 -80 -58 -87 -140 -244 10 -73 -109 -49 -153 -106 -18 -191 -55 7 -109 -109 -155 -262 -129 18 167 433 114 -296 -9 -276 -91 -104 -54 -63 -59 -56 -83 -165 -61 -83 -77 -114 18 32 -11 86 70 -141 -19 28 -79 -18 56 -127 -60 -96 -84 -75 -89 -101 -72 -121 -60 -169 -99 5 -74 -122 -63 -45 -67 -36 -78 -107 -66 -64 -65 35 -41 -136 -59 -37 -48 -63 -55 -25 -67 -45 -84 -293 -10 149 255 404 -45 -424 -83 -63 -112 -44 -103 -111 -85 -108 -78 -99 -74 -52 -58 7 -33 -69 -28 37 -30 -59 -16 -70 -64 -125 -92 -59 -93 -144 -89 -50 -106 -68 -66 -96 -76 -129 -74 -83 -75 -16 -81 -124 -71 -83 -67 -15 -61 -90 -59 18 -51 -62 -56 -112 -58 -56 -59 -104 -34 -161 -29 386 -70 -214 -93 -249 -153 -118 -177 -216 -151 -120 -150 -59 -122 -52 -101 -186 -97 -67 -78 107 -49 -140 -68 -128 -79 -161 -116 -202 -123 -99 -136 -92 -145 -156 -144 -230 -133 -221 -126 -225 -151 -206 -141 -215 -143 -93 -138 -230 -129 -213 -113 -127 -119 -130 -117 -197 -126 -174 -134 -301 -115 -124 -95 -14 -83 45 -87 -241 -103 -200 -127 -332 -173 -125 -143 -44 -148 -142 -131 -165 -114 -28 -103 -99 -76 -26 -72 -65 -89 -118 -102 13 -115 -97 -138 -82 -136 -151 -129 -73 -110 -23 -118 -16 -112 -58 -109 -100 -111 -91 -116 -120 -112 -89 -115 -104 -107 -78 -102 -83 -93 -40 -82 -48 -78 -86 -78 -27 -83 -40 -106 64 156 114 -89 -96 -95 -137 -96 -115 -111 -91 -114 -76 -77 -54 -62 -69 -46 -97 -41 -33 -31 -1 -29 3 -50 -34 -56 -63 -79 -115 -91 -101 -97 -85 -101 -89 -101 -103 -94 -87 -94 -104 -83 -110 -89 -84 -89 -96 -93 -85 -72 -68 -82 -75 -90 -55 -84 -78 -79 -114 -70 -126 -54 -80 -56 9 -69 -20 -75 -98 -117 -158 -146 -196 -168 -168 -170 -157 -156 -141 -123 -166 -117 -123 -101 -61 -77 -61 -94 -77 -99 -87 -113 -109 -108 -131 -131 -163 -129 -176 -137 -153 -147 -141 -150 -150 -158 -161 -150 -161 -152 -141 -130 -138 -136 -160 -134 -131 -123 -109 -130 -82 -133 -98 -127 -114 -135 -139 -115 -184 -90 -123 -98 -40 -120 -83 -103 -109 -128 -172 -157 -161 -171 -189 -170 -175 -159 -155 -137 -125 -121 -107 -116 -103 -83 -84 -105 -78 -93 -58 -127 -81 -103 -136 -92 -145 -116 -122 -125 -121 -113 -106 -115 -120 -112 -118 -107 -91 -116 -104 -105 -85 -93 -93 -70 -79 -65 -28 -69 -48 -58 -93 -39 -64 -58 -14 -60 -3 -86 20 122 25 -161 -72 -138 -148 -152 -164 -143 -105 -123 -105 -103 -111 -102 -56 -101 -36 -62 -49 -61 -58 -26 -62 -111 -28 -111 -89 -90 -109 -111 -132 -98 -135 -112 -73 -109 -76 -126 -113 -108 -121 -102 -56 -104 -109 -102 -104 -126 -37 -110 -68 -81 -113 -71 8 -79 6 -92 -50 -125 -54 -66 68 5 86 -118 -189 -150 -246 -196 -193 -155 -157 -135 -203 -123 -123 -134 -157 -88 -90 -64 -62 -39 5 -129 -45 -74 -93 -54 -209 -117 -146 -150 -167 -145 -136 -115 -121 -124 -199 -106 -305 -123 -88 -130 -103 -64 -201 -30 -259 -165 12 -64 -164 -128 -74 -121 -74 -40 -187 -62 -238 -99 -126 -117 -135 -102 -15 -14 196 -87 -262 -111 -193 -180 -124 -188 -103 -156 -153 -138 -171 -99 -94 -90 -128 -72 -123 -77 -58 -58 26 -88 -98 -121 -200 -80 -177 -104 -90 -170 -152 -79 -103 -104 -147 -110 -191 -152 -134 -137 -131 -166 -137 -121 -189 -164 -171 -79 -154 -95 -113 -161 -175 -152 -74 -154 -153 -148 -201 -85 -165 -134 -129 -118 -234 -218 70 79 187 -138 -431 -183 -182 -195 -103 -143 -253 -137 -158 -217 -111 -130 -294 -146 -72 -123 -161 -134 -46 -114 -206 -204 -63 -163 -146 -152 -198 -171 -248 -204 -203 -256 -69 -211 -230 -214 -259 -158 -181 -211 -244 -200 -99 -238 -177 -159 -217 -253 -188 -170 -195 -289 -181 -172 -190 -156 -226 -180 -128 -149 -172 -267 -192 -217 -262 -183 -142 -361 -219 203 198 -111 -382 -345 -345 -233 -292 -299 -162 -291 -295 -108 -267 -264 -186 -266 -165 -78 -175 -157 -104 -123 -131 -190 -221 -56 -158 -265 -155 -239 -310 -146 -212 -192 -322 -217 -134 -155 -181 -202 -191 -172 -262 -111 -129 -234 -172 -173 -275 -117 -166 -200 -194 -176 -172 -196 -218 -51 -149 -183 -146 -123 -231 -225 -313 -77 63 301 107 -379 -316 -255 -266 -61 -103 -221 -252 -78 -207 -163 -157 6 -124 -91 -46 -85 11 -28 -86 -55 -90 -69 -104 -94 -140 -141 -192 -56 -182 -195 -77 -111 -112 -151 -240 -229 -119 -88 -107 -25 -166 -135 -159 -27 -143 -210 -61 -112 -150 -3 -103 -108 -109 -185 -41 -127 -225 22 -121 -310 -95 20 85 237 32 -298 -200 -182 -87 -121 -112 -91 -80 -115 -43 -138 -81 -63 -2 -43 -90 -1 -7 -43 14 -59 -43 -68 -92 -93 -81 -191 -54 -87 -102 -172 -49 -77 -99 -82 -97 -73 -82 -193 -101 -53 -112 -124 -94 -108 
#II[uV]
-1160 2435 -1020 2593 -864 2744 -715 2893 -562 3045 -412 -438 -427 -438 -438 -460 -456 -433 -461 -442 -452 -458 -451 -455 -469 -458 -465 -469 -467 -496 -488 -477 -469 -467 -455 -425 -439 -387 -425 -368 -425 -415 -449 -491 -480 -472 -481 -409 -481 -334 -518 -275 156 -182 -663 -790 -725 -652 -747 -594 -690 -554 -645 -675 -630 -542 -616 -518 -587 -520 -548 -449 -540 -405 -540 -407 -548 -424 -574 -522 -577 -578 -587 -502 -600 -513 -590 -484 -592 -521 -595 -518 -588 -529 -592 -527 -576 -527 -577 -490 -557 -587 -543 -444 -537 -410 -556 -585 -566 -563 -589 -549 -588 -605 -566 -632 -550 -114 -283 -346 -583 -691 -626 -564 -611 -619 -597 -526 -547 -570 -547 -499 -520 -533 -500 -437 -451 -388 -413 -389 -441 -333 -503 -414 -528 -514 -529 -521 -507 -498 -493 -531 -494 -457 -497 -484 -492 -532 -476 -492 -483 -519 -478 -427 -492 -559 -448 -386 -432 -429 -493 -556 -509 -400 -541 -518 -554 -599 -562 -145 227 -290 -697 -717 -671 -515 -599 -559 -540 -516 -526 -523 -511 -484 -503 -461 -482 -481 -461 -409 -429 -430 -387 -328 -465 -452 -559 -529 -478 -496 -511 -434 -520 -523 -490 -481 -508 -415 -502 -473 -520 -529 -475 -426 -507 -523 -490 -368 -452 -497 -412 -398 -504 -548 -523 -456 -556 -412 -579 -641 -629 -97 453 -301 -723 -730 -661 -539 -588 -521 -569 -570 -523 -513 -482 -480 -518 -509 -538 -435 -396 -471 -339 -383 -395 -392 -440 -441 -563 -482 -499 -570 -480 -614 -459 -439 -550 -511 -485 -512 -499 -583 -558 -572 -468 -454 -518 -571 -548 -594 -568 -503 -428 -431 -405 -493 -492 -511 -615 -591 -565 -575 -543 -656 -717 -619 138 -12 -583 -920 -892 -799 -722 -729 -641 -719 -634 -771 -680 -742 -643 -694 -636 -686 -467 -664 -526 -563 -501 -635 -542 -628 -554 -614 -592 -656 -675 -589 -600 -770 -532 -639 -550 -687 -640 -590 -668 -670 -561 -548 -674 -647 -457 -588 -595 -612 -676 -636 -587 -637 -524 -598 -453 -611 -521 -604 -773 -526 -538 -615 -675 -613 -872 -393 739 -347 -1177 -649 -894 -672 -743 -673 -673 -674 -735 -649 -609 -603 -660 -574 -674 -610 -455 -534 -516 -488 -512 -499 -541 -561 -575 -543 -642 -534 -640 -623 -585 -571 -597 -570 -663 -588 -603 -557 -570 -582 -601 -546 -584 -551 -611 -549 -564 -556 -523 -553 -582 -540 -573 -561 -646 -550 -452 -504 -459 -493 -539 -500 -648 -534 -552 -540 -717 -494 -750 -395 518 -439 -911 -527 -749 -658 -638 -660 -693 -637 -635 -611 -538 -609 -689 -586 -538 -552 -510 -510 -456 -496 -474 -476 -503 -492 -510 -515 -586 -542 -561 -550 -546 -562 -551 -560 -472 -556 -589 -561 -483 -577 -552 -545 -566 -539 -498 -548 -543 -551 -610 -542 -479 -523 -491 -503 -409 -502 -558 -506 -583 -538 -522 -552 -604 -501 -783 -484 334 -530 -721 -518 -766 -600 -645 -626 -652 -629 -650 -618 -586 -573 -668 -576 -549 -552 -504 -518 -416 -500 -447 -516 -469 -514 -563 -546 -510 -564 -549 -579 -578 -571 -569 -533 -533 -548 -466 -551 -504 -562 -530 -563 -618 -543 -493 -545 -560 -539 -345 -552 -428 -576 -451 -531 -599 -524 -540 -518 -568 -479 -505 -487 -16 -491 -673 -509 -632 -567 -584 -607 -552 -591 -627 -572 -535 -547 -483 -519 -431 -506 -373 -476 -428 -480 -409 -481 -439 -484 -461 -516 -492 -518 -514 -543 -541 -537 -432 -526 -424 -534 -525 -536 -500 -539 -468 -521 -502 -519 -506 -509 -443 -507 -496 -508 -390 -505 -441 -504 -452 -509 -511 -488 -526 -459 -483 -435 -364 -481 -222 -504 -520 -593 -565 -594 -642 -652 -641 -656 -607 -623 -603 -601 -633 -580 -573 -555 -546 -543 -479 -524 -489 -527 -527 -514 -572 -525 -578 -548 -588 -565 -604 -561 -572 -553 -546 -540 -549 -548 -580 -538 -567 -517 -568 -556 -533 -543 -557 -531 -544 -525 -482 -511 -467 -518 -490 -530 -546 -542 -585 -509 -553 -513 -440 -505 -409 -514 -396 -541 -547 -550 -655 -603 -676 -643 -634 -623 -601 -593 -577 -559 -544 -532 -499 -511 -481 -488 -438 -495 -461 -498 -494 -519 -542 -532 -568 -549 -561 -541 -541 -531 -539 -530 -522 -514 -528 -512 -524 -509 -523 -511 -528 -510 -543 -510 -550 -501 -516 -482 -481 -485 -447 -477 -466 -529 -502 -524 -561 -495 -525 -478 -367 -489 -369 -188 -357 -532 -430 -543 -561 -575 -594 -594 -555 -582 -535 -560 -501 -518 -492 -483 -446 -455 -416 -449 -404 -456 -392 -477 -425 -513 -468 -517 -495 -519 -538 -516 -525 -515 -514 -509 -493 -512 -491 -505 -508 -509 -506 -521 -525 -520 -516 -511 -542 -502 -500 -493 -467 -494 -432 -495 -474 -514 -525 -507 -544 -503 -526 -481 -407 -458 -361 -392 -340 -526 -539 -547 -525 -557 -548 -535 -529 -545 -516 -507 -497 -485 -478 -465 -434 -445 -399 -429 -428 -463 -425 -469 -434 -483 -484 -499 -426 -503 -502 -511 -441 -492 -420 -497 -449 -500 -472 -495 -413 -507 -440 -483 -359 -474 -430 -446 -308 -421 -373 -455 -399 -474 -425 -488 -383 -455 -359 -422 -388 -330 -131 -526 -636 -590 -741 -674 -592 -642 -518 -618 -599 -607 -754 -587 -519 -563 -513 -558 -524 -557 -477 -533 -376 -555 -547 -571 -528 -575 -539 -578 -534 -576 -585 -568 -540 -568 -542 -568 -453 -572 -610 -582 -497 -571 -595 -554 -516 -534 -586 -506 -441 -512 -483 -527 -627 -562 -539 -592 -427 -590 -586 -527 -637 -367 72 -603 -882 -708 -748 -707 -610 -691 -691 -677 -701 -648 -659 -649 -592 -626 -690 -584 -525 -539 -468 -530 -544 -532 -560 -595 -534 -589 -595 -591 -600 -596 -592 -580 -585 -560 -628 -559 -533 -574 -589 -555 -621 -588 -529 -580 -622 -582 -579 -570 -576 -558 -500 -509 -516 -522 -533 -550 -603 -567 -513 -594 -563 -625 -714 -619 -14 324 -448 -703 -714 -678 -482 -588 -543 -519 -556 -516 -496 -505 -496 -587 -525 -434 -396 -417 -468 -311 -407 -418 -396 -451 -397 -458 -497 -519 -518 -495 -458 -483 -464 -439 -487 -442 -423 -518 -473 -435 -501 -388 -423 -458 -461 -509 -463 -367 -459 -559 -434 -443 -419 -357 -395 -308 -406 -526 -529 -488 -384 -442 -455 -698 -707 -655 43 908 -352 -1004 -730 -846 -705 -744 -749 -630 -711 -706 -728 -701 -712 -664 -767 -644 -708 -565 -559 -577 -632 -537 -633 -518 -580 -578 -712 -614 -662 -626 -693 -628 -664 -577 -673 -634 -708 -621 -606 -572 -683 -654 -706 -539 -691 -554 -652 -680 -630 -550 -618 -606 -565 -534 -587 -684 -559 -409 -519 -558 -517 -558 -570 -492 -595 -713 -649 -642 -691 -636 -172 406 -424 -855 -524 -738 -563 -554 -567 -585 -552 -553 -490 -499 -522 -504 -497 -538 -440 -409 -445 -315 -401 -466 -402 -330 -438 -470 -418 -565 -479 -487 -469 -432 -491 -557 -443 -454 -416 -497 -493 -442 -458 -484 -453 -505 -445 -377 -449 -507 -449 -460 -470 -438 -428 -430 -387 -384 -416 -467 -473 -558 -441 -410 -472 -629 -409 -422 -4 328 -397 -753 -451 -505 -533 -471 -504 -481 -474 -479 -473 -552 -446 -405 -423 -402 -390 -413 -365 -289 -351 -307 -347 -356 -419 -511 -449 -421 -454 -439 -454 -402 -444 -460 -458 -388 -481 -490 -432 -378 -438 -380 -420 -477 -414 -411 -422 -432 -399 -326 -399 -324 -414 -458 -432 -493 -442 -447 -420 -508 -371 -544 -348 470 -410 -711 -473 -765 -611 -581 -645 -676 -630 -569 -584 -622 -570 -493 -557 -586 -535 -496 -505 -361 -466 -450 -474 -426 -499 -535 -530 -637 -548 -484 -557 -537 -572 -566 -557 -575 -537 -485 -546 -565 -543 -470 -545 -560 -551 -543 -529 -556 -529 -473 -499 -439 -499 -386 -508 -500 -520 -483 -531 -581 -491 -565 -405 -301 -419 -61 -403 -534 -461 -505 -536 -632 -589 -421 -567 -475 -538 -486 -521 -437 -485 -396 -465 -356 -436 -333 -412 -363 -437 -415 -455 -320 -484 -430 -478 -426 -490 -469 -484 -436 -474 -373 -453 -368 -458 -405 -445 -448 -452 -447 -448 -475 -449 -466 -455 -450 -446 -427 -449 -393 -431 -384 -440 -428 -464 -479 -473 -416 -446 -437 -392 -243 -17 -108 -406 -372 -461 -478 -505 -516 -518 -493 -508 -467 -480 -476 -434 -439 -420 -424 -407 -370 -386 -331 -370 -323 -375 -377 -405 -407 -420 -464 -435 -470 -451 -443 -456 -440 -449 -448 -452 -457 -454 -470 -454 -483 -467 -464 -471 -479 -465 -473 -443 -439 -442 -427 -439 -407 -449 -453 -456 -513 -454 -521 -434 -434 -421 -289 -473 -412 -496 -487 -608 -670 -649 -789 -718 -744 -714 -706 -702 -657 -663 -639 -643 -596 -610 -532 -573 -541 -572 -529 -568 -532 -579 -560 -590 -600 -617 -640 -631 -645 -642 -619 -626 -589 -623 -604 -620 -613 -608 -617 -608 -593 -602 -596 -607 -635 -601 -609 -602 -561 -598 -562 -572 -552 -588 -584 -594 -630 -573 -672 -524 -566 -514 -424 -542 -528 -517 -503 -558 -669 -576 -729 -567 -680 -595 -655 -595 -626 -568 -601 -540 -580 -516 -552 -482 -518 -462 -509 -427 -504 -439 -486 -528 -548 -533 -570 -548 -553 -551 -535 -539 -513 -523 -524 -516 -509 -518 -492 -520 -509 -506 -446 -546 -453 -483 -415 -457 -369 -457 -403 -488 -478 -487 -477 -503 -431 -482 -349 -480 -295 -79 -356 -536 -467 -558 -566 -565 -595 -564 -538 -539 -533 -527 -558 -508 -495 -496 -477 -429 -470 -401 -414 -441 -411 -454 -405 -490 -448 -493 -483 -514 -501 -501 -498 -503 -438 -498 -463 -499 -456 -518 -473 -503 -447 -508 -502 -499 -461 -493 -370 -479 -411 -452 -464 -480 -375 -499 -397 -503 -392 -464 -442 -461 -293 -60 -208 -553 -570 -580 -541 -600 -539 -561 -506 -545 -516 -524 -482 -519 -437 -490 -380 -458 -360 -414 -358 -425 -294 -438 -358 -463 -439 -492 -421 -498 -520 -497 -458 -500 -432 -493 -496 -480 -571 -482 -405 -492 -457 -486 -498 -479 -568 -474 -410 -459 -488 -440 -365 -450 -385 -493 -474 -517 -541 -515 -434 -503 -533 -469 -446 -211 217 -565 -834 -648 -683 -689 -591 -661 -544 -669 -647 -648 -677 -630 -550 -591 -552 -526 -578 -510 -443 -495 -423 -500 -485 -507 -525 -550 -567 -588 -576 -588 -554 -572 -504 -549 -570 -564 -618 -578 -547 -606 -556 -581 -532 -580 -599 -561 -609 -570 -586 -586 -578 -537 -502 -500 -471 -508 -555 -554 -538 -559 -566 -565 -541 -637 -676 -688 -284 545 97 -831 -977 -791 -600 -675 -533 -621 -626 -610 -625 -603 -594 -588 -729 -595 -450 -538 -533 -485 -492 -530 -457 -454 -569 -574 -487 -645 -558 -589 -596 -606 -665 -583 -508 -580 -602 -566 -542 -576 -609 -578 -618 -600 -582 -602 -547 -581 -599 -596 -540 -578 -578 -603 -646 -586 -547 -503 -528 -409 -436 -689 -619 -611 -590 -525 -554 -683 -678 -747 -644 214 227 -651 -1008 -839 -709 -645 -682 -710 -695 -645 -612 -607 -690 -632 -591 -572 -556 -517 -571 -563 -528 -424 -439 -463 -469 -509 -473 -596 -562 -578 -721 -539 -548 -450 -612 -636 -554 -526 -535 -499 -466 -535 -674 -555 -557 -467 -503 -640 -514 -490 -623 -512 -526 -408 -484 -443 -557 -510 -466 -580 -548 -553 -559 -605 -741 -541 72 443 -209 -733 -765 -623 -575 -485 -546 -548 -508 -473 -514 -526 -620 -354 -510 -450 -361 -334 -302 -350 -340 -301 -319 -314 -394 -415 -524 -496 -478 -428 -456 -470 -452 -409 -497 -466 -493 -489 -444 -377 -448 -396 -459 -399 -512 -396 -478 -461 -455 -398 -433 -363 -378 -371 -446 -392 -459 -522 -520 -400 -477 -598 -563 -180 350 304 -413 -636 -472 -498 -454 -377 -456 -363 -417 -496 -370 -403 -391 -433 -364 -257 -302 -270 -324 -197 -263 -319 -331 -211 -379 -305 -340 -467 -351 -415 -359 -412 -364 -358 -385 -334 -410 -379 -376 -389 -340 -396 -351 -342 -353 -390 
#III[uV]
9235 11812 7335 9909 5414 8000 3533 6085 1613 4172 -261 -309 -321 -307 -320 -332 -331 -317 -345 -332 -339 -348 -356 -366 -370 -356 -396 -376 -381 -403 -416 -398 -399 -389 -386 -358 -378 -339 -348 -349 -356 -373 -383 -407 -414 -365 -428 -373 -392 -333 -395 -337 -137 -267 -528 -460 -583 -466 -602 -507 -550 -471 -532 -459 -508 -395 -510 -462 -498 -421 -498 -379 -495 -354 -495 -382 -482 -379 -480 -405 -471 -489 -480 -354 -493 -328 -476 -363 -478 -384 -489 -442 -486 -361 -484 -358 -473 -396 -474 -363 -468 -396 -454 -371 -445 -294 -430 -485 -444 -431 -475 -350 -488 -471 -494 -449 -450 -181 -363 -512 -448 -407 -488 -406 -486 -471 -457 -465 -447 -362 -445 -464 -454 -317 -436 -359 -425 -403 -400 -395 -414 -386 -448 -380 -448 -417 -444 -409 -437 -417 -403 -470 -435 -417 -438 -378 -472 -482 -439 -453 -451 -380 -418 -416 -459 -490 -405 -328 -415 -400 -455 -425 -433 -409 -472 -468 -463 -439 -488 -291 -33 -428 -546 -413 -534 -449 -478 -416 -490 -432 -449 -443 -443 -403 -395 -453 -510 -436 -418 -422 -420 -371 -390 -280 -410 -425 -479 -443 -458 -410 -393 -394 -437 -446 -431 -462 -428 -382 -466 -396 -496 -412 -349 -421 -456 -471 -459 -399 -375 -411 -459 -384 -447 -460 -467 -431 -466 -415 -501 -502 -589 -239 48 -395 -456 -492 -484 -463 -476 -415 -552 -472 -426 -410 -413 -443 -455 -442 -506 -456 -427 -432 -363 -375 -339 -381 -393 -353 -457 -467 -411 -435 -377 -475 -400 -361 -448 -507 -422 -329 -446 -433 -472 -518 -327 -419 -410 -427 -527 -441 -460 -425 -387 -362 -382 -463 -346 -485 -497 -363 -476 -466 -404 -624 -539 -440 -44 -100 -669 -675 -504 -636 -540 -549 -521 -562 -493 -639 -503 -604 -520 -568 -536 -453 -463 -516 -472 -550 -449 -589 -481 -574 -420 -464 -429 -501 -638 -487 -475 -669 -501 -559 -340 -542 -566 -643 -487 -552 -429 -447 -597 -536 -401 -519 -526 -538 -473 -575 -485 -533 -522 -489 -339 -577 -419 -541 -662 -478 -459 -516 -559 -542 -698 -441 482 -465 -882 -471 -459 -555 -755 -537 -551 -532 -467 -536 -526 -496 -563 -489 -568 -535 -503 -478 -427 -455 -497 -451 -449 -470 -528 -422 -546 -467 -467 -524 -436 -446 -559 -436 -547 -490 -435 -450 -531 -482 -506 -464 -426 -437 -553 -465 -463 -469 -433 -436 -446 -425 -456 -453 -530 -467 -348 -417 -385 -412 -465 -419 -535 -428 -475 -455 -563 -450 -502 -367 35 -370 -700 -428 -529 -456 -478 -466 -451 -453 -474 -451 -473 -451 -562 -465 -408 -456 -377 -437 -432 -417 -389 -389 -433 -417 -363 -404 -447 -413 -435 -431 -408 -415 -421 -442 -411 -428 -361 -436 -462 -451 -411 -411 -463 -418 -267 -421 -455 -402 -524 -417 -363 -413 -364 -417 -354 -405 -466 -416 -474 -417 -420 -425 -426 -406 -546 -387 -83 -399 -448 -403 -526 -429 -426 -437 -473 -443 -412 -448 -464 -419 -506 -441 -364 -408 -387 -402 -380 -391 -350 -393 -262 -407 -398 -422 -285 -433 -419 -437 -330 -445 -445 -394 -368 -395 -384 -422 -328 -430 -267 -422 -380 -409 -254 -402 -262 -410 -251 -407 -215 -450 -273 -407 -353 -413 -314 -403 -376 -392 -401 -386 -190 -394 -331 -421 -334 -439 -385 -455 -370 -453 -406 -449 -419 -434 -366 -435 -428 -424 -422 -409 -388 -404 -393 -406 -405 -401 -305 -404 -362 -413 -420 -421 -403 -428 -401 -422 -381 -425 -400 -424 -380 -430 -417 -416 -383 -420 -441 -414 -442 -412 -412 -428 -347 -418 -363 -426 -427 -428 -448 -419 -425 -413 -423 -386 -351 -415 -291 -432 -388 -477 -451 -466 -511 -496 -488 -500 -481 -473 -493 -460 -502 -460 -472 -451 -439 -444 -434 -435 -415 -421 -427 -419 -426 -416 -430 -424 -454 -431 -465 -432 -469 -429 -440 -439 -450 -429 -453 -422 -463 -410 -457 -441 -431 -437 -427 -424 -422 -418 -408 -408 -414 -410 -426 -426 -436 -452 -436 -434 -427 -436 -428 -428 -405 -434 -388 -436 -419 -435 -461 -467 -480 -494 -478 -486 -481 -466 -465 -462 -435 -448 -396 -422 -402 -408 -394 -391 -406 -402 -399 -408 -426 -427 -428 -435 -439 -427 -424 -427 -424 -424 -424 -415 -424 -408 -410 -411 -426 -412 -432 -424 -457 -417 -442 -413 -419 -392 -399 -392 -395 -389 -406 -446 -418 -453 -447 -438 -429 -429 -367 -417 -400 -252 -355 -446 -401 -463 -433 -463 -435 -468 -429 -459 -413 -453 -417 -426 -407 -425 -393 -420 -382 -412 -371 -405 -361 -413 -356 -430 -378 -397 -394 -416 -421 -416 -425 -413 -410 -410 -390 -405 -399 -399 -409 -415 -408 -418 -416 -420 -419 -423 -399 -419 -402 -397 -386 -391 -396 -380 -417 -409 -408 -413 -426 -422 -411 -424 -389 -429 -346 -429 -300 -437 -444 -450 -462 -445 -460 -453 -421 -457 -399 -438 -424 -421 -433 -424 -410 -413 -370 -391 -406 -398 -382 -394 -388 -395 -392 -411 -418 -410 -409 -417 -406 -411 -373 -413 -359 -427 -367 -421 -348 -417 -351 -409 -417 -406 -373 -383 -362 -374 -307 -419 -359 -424 -367 -435 -289 -432 -335 -413 -362 -343 -139 -428 -450 -442 -508 -501 -445 -493 -403 -476 -447 -487 -526 -476 -405 -464 -401 -460 -333 -470 -306 -444 -199 -468 -302 -449 -412 -453 -387 -453 -390 -458 -475 -462 -381 -437 -364 -440 -394 -430 -458 -450 -376 -467 -407 -440 -492 -412 -399 -429 -224 -406 -463 -428 -446 -453 -423 -451 -362 -474 -467 -458 -525 -299 -65 -557 -619 -571 -563 -549 -496 -510 -547 -521 -501 -542 -560 -526 -494 -540 -506 -504 -490 -481 -435 -476 -466 -468 -461 -501 -485 -483 -503 -496 -537 -526 -352 -481 -616 -480 -491 -493 -420 -495 -534 -493 -438 -520 -485 -503 -557 -460 -506 -490 -407 -529 -439 -491 -403 -497 -470 -424 -548 -521 -493 -486 -418 -562 -603 -584 -176 -50 -494 -561 -504 -588 -424 -537 -485 -465 -460 -477 -497 -451 -500 -523 -369 -452 -465 -373 -500 -432 -382 -427 -414 -383 -415 -467 -399 -468 -538 -391 -402 -474 -432 -364 -400 -416 -405 -391 -389 -426 -424 -432 -429 -258 -406 -519 -355 -412 -438 -420 -394 -393 -430 -280 -317 -366 -421 -414 -464 -434 -371 -461 -351 -586 -582 -569 -167 477 -421 -796 -610 -611 -483 -671 -552 -412 -695 -538 -493 -591 -648 -523 -537 -508 -683 -549 -439 -440 -528 -510 -522 -439 -456 -464 -595 -487 -482 -531 -612 -509 -509 -440 -478 -513 -633 -382 -469 -489 -505 -554 -582 -392 -556 -536 -465 -565 -590 -469 -559 -519 -425 -289 -597 -611 -449 -359 -366 -451 -498 -367 -514 -499 -486 -604 -494 -380 -562 -654 -340 -27 -538 -558 -515 -462 -472 -449 -513 -522 -492 -496 -407 -334 -460 -421 -419 -424 -458 -441 -434 -402 -472 -324 -383 -358 -359 -451 -474 -437 -418 -391 -385 -357 -402 -455 -371 -333 -355 -328 -393 -447 -383 -361 -390 -459 -378 -340 -371 -400 -382 -395 -405 -473 -386 -293 -328 -347 -367 -404 -417 -533 -373 -365 -387 -336 -398 -572 -259 -75 -351 -329 -367 -442 -420 -427 -401 -370 -389 -371 -394 -452 -371 -353 -365 -409 -356 -344 -336 -327 -320 -247 -330 -286 -355 -386 -356 -361 -361 -295 -364 -351 -337 -392 -391 -292 -404 -361 -358 -295 -362 -363 -338 -352 -342 -328 -354 -416 -337 -235 -339 -343 -362 -396 -376 -380 -384 -390 -361 -403 -337 -382 -319 83 -340 -497 -379 -516 -457 -463 -467 -459 -479 -449 -433 -563 -447 -440 -456 -399 -437 -429 -426 -469 -417 -310 -405 -297 -419 -374 -413 -435 -424 -384 -421 -445 -426 -409 -412 -344 -403 -264 -419 -339 -392 -264 -404 -345 -408 -450 -390 -326 -399 -259 -385 -312 -380 -256 -391 -302 -394 -308 -396 -279 -375 -441 -309 -287 -336 -106 -316 -292 -358 -305 -409 -299 -416 -295 -423 -431 -390 -344 -390 -272 -371 -367 -361 -256 -359 -306 -340 -298 -347 -297 -353 -334 -368 -333 -339 -344 -353 -317 -354 -362 -364 -349 -334 -352 -346 -347 -336 -348 -341 -355 -331 -355 -337 -377 -340 -345 -338 -348 -346 -309 -338 -344 -357 -379 -386 -393 -395 -388 -363 -397 -285 -307 -173 -223 -316 -276 -365 -340 -408 -401 -406 -402 -394 -391 -402 -421 -372 -369 -373 -326 -366 -337 -355 -329 -340 -326 -325 -343 -348 -344 -341 -349 -343 -368 -353 -358 -355 -350 -348 -345 -357 -369 -359 -365 -371 -372 -377 -379 -381 -382 -372 -387 -370 -370 -359 -351 -348 -351 -364 -375 -376 -398 -384 -394 -379 -353 -364 -298 -403 -392 -420 -388 -490 -511 -502 -593 -549 -576 -543 -548 -545 -515 -539 -472 -525 -473 -509 -471 -495 -480 -478 -451 -468 -445 -466 -450 -482 -468 -485 -476 -502 -468 -504 -465 -478 -448 -473 -453 -462 -452 -458 -456 -456 -451 -471 -458 -471 -474 -466 -478 -478 -451 -467 -479 -438 -454 -460 -470 -458 -491 -458 -488 -434 -442 -416 -383 -421 -444 -414 -393 -429 -497 -419 -568 -396 -490 -425 -480 -435 -471 -430 -476 -418 -473 -399 -448 -399 -433 -356 -431 -333 -445 -311 -405 -424 -411 -440 -425 -432 -431 -426 -413 -425 -407 -407 -403 -404 -390 -411 -401 -403 -404 -401 -361 -452 -359 -413 -335 -392 -340 -388 -354 -430 -385 -448 -412 -444 -416 -422 -346 -393 -315 -201 -382 -374 -395 -419 -418 -413 -430 -420 -433 -415 -427 -423 -447 -405 -438 -395 -440 -366 -421 -340 -355 -415 -349 -343 -377 -378 -358 -402 -374 -402 -369 -402 -363 -390 -364 -389 -387 -373 -343 -409 -351 -401 -390 -404 -392 -397 -356 -366 -333 -368 -343 -371 -351 -409 -384 -419 -404 -411 -342 -339 -387 -395 -361 -66 -294 -434 -380 -429 -294 -404 -346 -406 -349 -409 -313 -400 -359 -384 -280 -401 -289 -393 -298 -374 -364 -296 -249 -363 -264 -409 -229 -375 -274 -347 -353 -351 -322 -385 -310 -369 -296 -373 -266 -358 -317 -362 -354 -421 -297 -449 -308 -308 -422 -394 -324 -312 -291 -329 -310 -452 -287 -454 -303 -416 -307 -386 -398 -366 -431 -197 20 -477 -571 -536 -490 -509 -467 -472 -441 -513 -494 -510 -505 -530 -455 -501 -423 -453 -455 -433 -384 -436 -450 -411 -386 -385 -325 -470 -389 -484 -486 -418 -401 -492 -400 -445 -422 -453 -426 -426 -413 -469 -424 -414 -394 -458 -409 -397 -437 -491 -432 -491 -465 -376 -327 -348 -397 -354 -401 -406 -337 -474 -400 -430 -411 -518 -442 -469 -355 465 -90 -692 -546 -608 -418 -479 -430 -477 -372 -472 -467 -386 -482 -457 -435 -448 -378 -415 -372 -351 -445 -415 -250 -249 -505 -410 -340 -492 -360 -417 -347 -402 -461 -326 -438 -368 -372 -351 -283 -418 -428 -367 -373 -399 -483 -363 -370 -422 -382 -343 -352 -408 -382 -314 -464 -414 -357 -346 -301 -228 -308 -540 -446 -343 -398 -307 -291 -500 -536 -386 -425 10 28 -540 -625 -493 -363 -412 -390 -410 -532 -354 -317 -498 -423 -368 -405 -305 -390 -438 -396 -405 -423 -300 -307 -272 -248 -453 -314 -330 -406 -338 -410 -392 -335 -257 -290 -419 -419 -371 -353 -297 -274 -362 -412 -443 -428 -232 -330 -467 -239 -373 -456 -311 -332 -232 -312 -247 -338 -459 -316 -397 -401 -429 -327 -379 -427 -464 9 142 -317 -354 -449 -368 -309 -423 -443 -327 -255 -394 -306 -363 -463 -360 -386 -359 -315 -248 -313 -322 -254 -246 -228 -244 -289 -321 -383 -354 -285 -371 -273 -275 -374 -297 -385 -314 -252 -260 -325 -289 -340 -370 -293 -263 -353 -369 -335 -251 -393 -285 -282 -359 -275 -263 -337 -207 -418 -395 -295 -422 -356 -288 -467 -200 264 66 -446 -337 -271 -315 -366 -256 -343 -272 -337 -381 -326 -265 -310 -369 -361 -214 -212 -269 -316 -154 -278 -259 -287 -143 -286 -212 -259 -275 -296 -327 -256 -240 -314 -280 -285 -252 -312 -305 -293 -195 -239 -343 -238 -218 -259 -281 
#avR[uV]
5777 3470 4688 2360 3571 1255 2482 148 1369 -959 282 283 266 285 277 294 290 274 288 276 282 284 272 271 284 280 267 281 276 295 280 278 269 272 262 246 249 217 250 193 247 228 257 287 272 289 267 222 284 167 320 106 -225 49 399 560 433 419 446 341 415 318 379 446 375 344 361 287 338 309 299 259 292 228 292 216 307 234 334 319 341 333 347 325 353 349 352 302 353 329 351 296 345 349 349 348 340 328 339 308 323 388 316 259 314 262 341 342 343 348 351 374 344 369 318 407 325 23 101 89 358 487 382 360 367 383 368 293 324 389 324 267 292 374 281 257 238 187 213 191 234 140 278 223 303 305 307 317 288 289 291 296 276 248 278 294 255 290 256 265 257 329 269 219 262 314 246 222 224 229 266 344 292 195 305 284 322 380 318 0 -243 76 424 510 404 290 360 351 295 300 301 301 289 282 305 234 226 263 252 197 219 245 191 187 260 239 319 307 249 291 314 237 301 300 275 250 294 224 268 274 271 323 300 215 279 287 260 168 264 291 182 206 280 318 289 240 323 204 328 390 335 -22 -429 104 495 484 419 307 350 314 292 333 310 307 275 259 290 287 285 207 182 255 157 195 225 202 244 265 334 248 294 352 292 376 259 259 326 257 273 347 276 367 322 313 304 244 313 358 284 373 338 291 235 250 214 261 319 268 366 410 327 342 340 344 448 398 -161 -37 248 583 640 481 452 455 381 438 387 452 428 440 383 410 368 460 236 406 290 288 277 340 301 340 344 382 377 405 356 345 363 435 281 359 379 416 356 268 424 393 346 324 375 379 256 328 332 343 439 349 344 371 263 353 284 322 312 333 441 287 308 357 396 342 522 173 -498 114 736 413 664 395 366 404 397 408 502 381 346 355 378 330 390 342 203 295 303 260 263 273 316 325 310 332 368 300 406 361 366 348 317 351 389 343 386 332 304 341 348 314 371 333 334 317 333 322 306 335 359 327 344 335 381 316 278 296 267 287 306 291 380 320 314 312 435 269 499 211 -500 253 560 313 485 430 399 427 467 410 398 385 302 383 408 353 334 324 322 291 239 287 279 281 286 283 329 313 362 335 343 335 342 354 340 339 266 342 408 342 251 352 347 340 334 330 365 337 316 350 347 333 297 316 309 294 232 299 324 298 346 330 312 340 391 298 509 290 -375 330 497 316 503 385 431 408 415 407 443 394 353 363 415 355 367 347 310 317 226 304 271 319 338 310 364 334 368 348 339 360 413 348 346 336 348 350 274 340 340 346 396 352 428 338 366 344 429 334 220 349 321 351 315 328 423 317 383 316 380 282 305 294 -78 294 507 299 465 347 391 379 367 365 423 347 326 330 299 301 217 294 162 272 234 277 212 278 236 283 308 314 310 311 304 332 340 323 231 315 233 321 325 324 310 324 260 313 310 309 285 302 222 300 290 294 217 295 260 290 238 295 287 278 313 252 271 242 188 274 76 288 326 354 340 361 386 404 397 406 367 387 356 370 381 350 337 329 327 321 261 306 281 316 313 304 359 317 362 336 361 349 372 345 337 338 326 320 324 333 354 327 335 311 339 335 317 324 343 319 333 316 278 307 260 313 276 317 328 315 367 292 339 294 226 291 206 297 201 323 338 332 424 370 435 395 394 379 360 359 344 328 327 307 301 300 279 284 241 299 257 297 294 315 329 318 354 331 342 327 329 317 326 318 310 306 316 307 319 303 310 305 312 297 314 302 328 294 307 286 281 289 250 282 263 305 292 298 337 276 310 263 184 280 169 62 179 309 229 311 345 343 376 359 340 352 328 334 292 305 288 270 249 245 225 242 218 253 211 270 246 298 279 318 297 311 327 307 312 309 309 304 298 309 291 306 303 301 302 312 317 310 306 299 342 293 298 294 274 298 234 305 266 310 320 300 331 292 320 268 212 244 188 177 190 307 317 322 293 334 318 308 318 316 317 288 284 275 261 252 229 238 213 233 224 264 233 271 240 285 288 293 217 298 297 302 238 287 233 291 270 286 289 284 239 299 264 278 151 270 243 254 127 234 219 246 219 262 242 270 239 239 191 216 207 158 62 312 411 369 487 424 369 395 317 380 375 363 491 349 316 330 312 328 357 322 324 311 277 321 395 346 322 348 345 351 339 346 348 337 349 350 360 348 256 356 380 357 309 337 391 334 270 328 386 291 329 309 252 313 404 336 328 367 246 353 352 298 374 218 -105 324 572 423 466 432 362 436 417 416 450 377 378 386 345 355 436 332 280 298 250 291 310 297 329 344 291 347 343 343 331 332 415 339 277 320 383 312 323 326 322 309 402 328 286 328 343 351 326 325 372 294 280 263 314 274 298 338 329 306 266 351 354 343 413 326 -73 -349 201 422 462 383 270 319 300 286 326 278 247 279 246 325 340 208 163 230 218 95 216 205 189 259 189 225 298 285 249 299 257 246 248 256 287 234 220 322 279 222 289 172 209 329 258 249 285 161 240 349 237 246 204 216 237 125 195 319 296 271 198 211 279 405 416 370 -127 -669 141 606 425 540 463 408 472 424 363 437 481 405 388 403 499 390 367 291 340 357 368 281 372 298 352 346 414 370 421 360 386 374 409 357 434 377 391 430 371 327 430 377 414 342 413 286 420 397 335 315 338 347 353 389 288 379 334 229 336 332 268 375 313 242 352 411 402 452 410 308 2 -420 154 575 266 507 327 329 311 324 306 305 287 332 291 294 287 326 210 188 228 114 165 303 210 151 259 244 180 346 270 291 276 253 290 329 258 287 238 333 296 218 266 303 258 275 256 207 264 307 258 262 267 201 234 283 223 211 232 265 264 292 254 227 278 461 210 136 -125 -366 221 588 267 284 322 258 303 296 279 294 276 325 260 229 241 197 212 241 197 126 191 183 182 213 242 318 270 240 273 291 271 226 275 264 262 242 279 310 253 231 256 198 251 300 243 247 245 224 230 208 229 152 232 260 244 302 250 251 240 306 202 353 188 -428 240 463 283 507 382 350 411 446 390 344 367 341 346 273 329 386 316 281 292 126 258 295 271 277 289 348 323 420 336 291 346 314 358 361 350 402 335 353 336 395 347 338 343 388 347 318 334 393 329 343 306 283 309 258 312 348 323 328 333 441 303 344 250 157 251 8 245 387 282 353 331 482 381 273 355 260 343 314 326 301 299 212 284 228 256 179 242 214 263 266 279 153 299 263 308 254 313 310 307 255 292 198 286 192 285 231 277 274 281 269 282 298 281 277 285 277 276 252 276 238 262 212 261 238 271 283 275 221 265 239 249 89 -69 -2 248 234 278 307 300 316 315 292 311 271 278 265 248 254 233 260 224 202 209 166 199 160 213 206 231 235 249 289 263 286 274 264 279 265 275 276 273 272 274 287 269 297 278 274 280 288 279 279 258 254 262 251 265 231 266 266 267 314 262 324 244 257 239 140 271 216 285 292 362 414 397 493 443 456 442 431 429 399 393 402 380 359 355 297 325 301 333 303 333 309 346 334 349 365 374 401 380 411 390 386 386 365 387 377 389 387 379 389 380 367 366 367 371 398 368 370 362 335 364 322 353 325 357 349 365 384 344 428 307 344 306 232 331 306 310 306 343 420 366 445 369 434 383 415 377 390 352 363 331 344 316 327 283 301 283 294 260 281 283 283 316 342 313 358 332 338 338 328 326 309 319 322 314 313 313 291 318 306 306 265 319 273 276 247 261 198 263 226 273 285 263 271 280 222 271 176 283 137 -21 165 349 269 348 357 358 379 354 322 331 319 315 335 305 276 299 256 245 259 231 236 234 237 283 216 300 268 291 296 313 317 300 317 308 255 303 269 312 284 313 297 302 251 306 305 301 282 310 203 295 240 266 288 276 183 289 195 297 221 295 248 263 112 27 60 335 380 365 393 398 366 358 331 340 360 323 302 326 297 289 235 261 211 226 176 277 170 256 226 259 324 304 283 324 343 321 297 307 276 308 347 293 438 303 246 311 280 275 349 254 413 319 198 261 326 284 219 285 229 267 331 290 389 307 280 310 334 286 230 113 -207 326 548 379 438 435 358 424 323 413 400 393 424 365 322 341 340 299 350 294 251 277 198 294 291 314 362 315 372 346 333 379 353 326 303 326 359 337 405 365 340 371 344 374 334 351 394 362 390 325 370 340 345 349 338 326 272 331 354 351 369 322 366 349 335 378 455 453 106 -312 -142 484 704 487 391 435 318 382 439 373 392 410 352 359 512 370 261 331 347 309 269 322 331 329 316 369 316 399 378 380 422 405 434 420 289 395 416 390 401 367 395 395 431 400 340 420 362 370 408 425 364 374 386 446 413 379 369 330 377 295 282 419 395 439 391 371 408 433 410 554 432 -209 -213 381 695 592 527 439 487 505 429 468 453 358 478 448 389 419 361 298 373 360 316 274 285 326 345 282 315 430 359 409 515 342 380 321 467 426 344 340 358 351 329 354 468 333 343 350 337 407 394 304 394 356 360 292 328 320 388 280 308 382 347 338 395 415 527 309 -67 -372 51 556 540 439 421 273 324 384 380 275 360 345 388 174 317 270 204 209 145 189 213 178 205 192 249 255 332 318 335 242 319 332 265 260 304 309 367 359 282 233 278 211 312 267 335 212 311 336 258 255 292 183 240 240 278 289 250 324 373 188 299 454 329 79 -217 -271 190 467 336 340 271 249 284 227 248 306 206 270 236 248 183 150 196 135 165 120 124 189 187 139 236 199 210 329 203 251 230 292 206 217 242 208 253 226 229 291 221 225 232 233 224 249 
#avL[uV]
-9815 -10594 -7845 -8612 -5846 -6628 -3891 -4638 -1894 -2649 55 90 107 87 101 101 103 100 114 110 113 119 131 138 135 126 163 141 148 154 172 159 164 156 158 145 159 146 135 164 143 165 158 161 174 129 188 168 152 166 136 200 216 175 196 65 220 140 228 209 205 194 209 121 193 124 202 203 204 161 224 155 225 152 224 178 208 167 193 144 183 200 187 102 193 72 181 121 181 123 191 183 191 96 188 94 184 133 186 118 189 103 182 149 176 89 152 192 161 149 180 75 194 168 211 132 175 124 221 339 157 61 174 124 181 161 158 202 173 77 171 214 194 50 186 141 200 208 193 200 194 220 196 173 184 160 180 148 183 168 156 204 188 188 189 136 226 216 200 207 209 120 179 202 212 210 180 134 199 185 208 146 179 209 201 208 186 139 206 218 147 283 197 55 198 192 178 136 220 173 186 181 187 161 144 222 269 195 187 217 205 155 197 116 177 199 199 179 219 161 137 177 177 184 185 221 174 174 215 160 236 147 111 208 202 210 214 215 149 163 253 184 195 186 206 203 187 209 211 181 274 190 178 244 95 127 153 193 182 154 268 187 164 154 172 202 196 188 237 238 229 196 193 183 141 184 172 132 176 226 161 150 136 168 170 141 173 252 180 73 196 141 193 232 93 192 151 141 252 144 176 173 172 146 179 216 100 229 189 67 194 178 133 296 180 131 114 93 377 214 57 237 179 184 200 202 176 253 163 233 198 221 218 109 229 183 208 269 198 272 209 260 143 157 132 173 300 193 174 284 235 239 65 199 246 347 153 217 149 173 260 212 172 225 229 231 135 257 192 214 260 190 112 272 158 239 276 215 190 209 221 235 262 244 -113 291 293 146 12 218 383 201 215 195 99 212 221 194 232 201 230 230 276 211 169 211 241 202 178 190 241 150 225 200 147 212 143 160 260 151 215 195 133 171 245 191 205 190 134 161 248 190 180 190 172 159 155 155 170 172 207 192 121 164 155 165 195 169 211 161 199 185 204 203 126 169 223 151 244 164 154 127 158 136 104 134 156 145 203 147 217 172 138 180 121 182 204 168 152 151 182 171 107 146 154 142 154 156 134 134 145 161 175 150 66 156 221 162 135 138 180 148 17 147 183 126 219 146 124 151 118 166 149 154 187 162 182 148 159 148 123 155 154 145 250 134 87 144 143 129 104 123 147 129 87 138 171 133 172 153 89 132 135 142 172 141 127 135 27 150 116 149 29 151 145 147 41 160 160 127 102 121 151 146 75 149 2 140 71 137 7 129 -17 140 78 130 0 162 47 141 53 151 44 144 91 153 148 142 182 148 -5 166 18 156 93 151 94 157 92 162 151 160 124 176 212 171 235 170 174 164 188 165 185 159 74 146 116 154 163 150 132 159 185 159 169 158 137 155 130 161 183 155 132 160 188 159 220 158 164 174 151 166 142 174 201 173 192 175 162 183 181 168 169 174 180 179 127 180 168 169 190 170 167 171 177 161 192 159 186 170 185 173 166 172 195 173 170 157 163 162 139 153 141 150 160 149 162 151 183 152 166 169 175 155 162 153 179 152 173 163 164 165 148 158 150 155 166 152 180 151 181 160 163 181 143 179 150 180 208 175 200 176 190 165 145 159 134 165 142 172 161 174 180 170 176 182 162 182 146 166 162 164 175 144 176 153 152 148 155 161 144 160 158 157 153 162 155 158 163 158 160 152 148 157 164 156 167 169 185 162 167 163 161 150 158 149 171 150 172 181 167 191 167 190 167 190 183 172 216 158 176 180 186 191 152 175 138 171 152 168 146 172 167 167 161 184 170 192 174 187 169 177 165 175 144 173 143 138 146 156 152 158 162 155 152 155 143 149 153 146 155 160 155 157 153 160 160 167 128 167 152 150 153 144 180 132 179 151 145 159 153 170 148 183 185 200 165 233 130 174 174 176 200 167 185 186 156 185 141 184 176 178 194 192 193 190 171 176 192 166 170 160 171 154 150 161 205 158 158 161 185 164 163 164 134 177 130 173 141 163 131 167 237 169 158 160 208 163 120 191 159 186 154 191 97 204 155 201 168 178 73 165 132 147 138 164 149 172 143 166 147 183 149 182 146 183 144 181 71 191 67 177 10 190 29 163 147 166 118 163 122 170 182 177 111 152 92 156 167 144 153 159 127 181 110 162 234 145 106 176 3 150 221 164 132 171 153 155 148 178 174 194 206 115 101 256 178 217 189 195 191 164 201 182 150 218 231 201 198 227 161 212 227 212 200 211 194 202 181 203 218 188 205 200 237 228 56 191 324 200 177 214 153 208 239 215 127 226 220 213 246 169 216 205 119 250 189 237 145 235 203 149 246 237 237 189 136 249 246 274 169 212 269 209 147 249 182 243 214 205 182 218 249 198 251 230 107 235 267 164 266 277 178 218 215 158 216 237 150 208 279 143 172 232 199 144 157 195 194 132 152 208 173 238 217 29 175 265 124 228 208 140 177 171 221 101 119 212 218 151 199 190 178 240 124 237 228 241 189 -23 245 294 245 187 130 299 178 97 339 184 129 240 291 190 153 186 328 266 159 151 212 242 205 180 166 174 238 180 150 218 265 195 177 151 141 196 279 71 166 203 163 226 229 122 210 259 138 225 274 194 250 215 142 22 303 268 170 155 106 172 239 88 229 253 188 247 169 58 216 336 254 230 326 130 253 93 190 172 229 229 216 219 161 84 199 168 171 155 238 236 211 244 271 91 182 193 139 216 265 154 178 147 150 141 156 176 149 106 147 79 146 226 154 119 163 206 155 151 146 146 158 165 170 254 172 78 134 154 159 170 181 254 152 160 151 21 193 360 257 239 152 -47 141 189 154 191 149 129 152 131 157 176 148 150 153 208 161 137 153 182 144 94 157 107 145 130 132 150 134 75 137 150 115 162 162 98 163 116 141 105 143 173 128 114 135 122 143 200 138 72 139 181 155 167 159 134 163 167 151 149 151 110 145 151 134 141 142 133 152 172 145 121 164 164 141 251 162 194 177 106 170 181 173 288 183 84 168 84 170 106 148 116 150 142 142 176 140 126 134 57 134 21 146 56 120 28 131 64 132 178 125 47 135 22 135 92 130 62 137 52 133 67 130 -11 130 158 106 136 126 75 114 25 127 52 141 -16 121 85 139 193 121 100 129 53 128 169 129 78 141 140 134 116 128 89 125 173 126 117 100 131 108 83 112 144 127 163 107 167 117 144 113 124 115 132 107 117 112 143 112 120 115 135 121 112 122 152 137 165 153 153 158 180 139 178 89 185 164 168 113 90 135 101 156 142 147 155 140 157 162 183 154 150 163 114 162 151 161 164 155 164 137 154 146 140 131 117 126 133 127 136 126 130 123 120 131 141 132 130 143 131 144 147 146 142 139 150 148 151 138 138 128 147 139 148 148 141 157 134 162 136 153 154 166 186 172 144 186 176 178 198 190 204 186 195 194 187 208 153 203 175 204 204 209 209 191 187 184 179 176 170 186 168 177 156 186 146 183 155 165 153 161 151 151 145 154 147 151 154 170 159 167 156 165 173 177 170 168 198 152 177 166 177 161 175 171 152 171 159 159 171 150 180 155 141 150 162 131 203 112 150 127 152 138 158 146 175 148 183 141 172 157 174 125 176 120 193 92 161 160 137 173 139 157 154 150 146 156 150 146 141 146 136 151 154 143 150 147 137 179 132 171 127 163 156 159 152 186 146 204 173 192 200 181 171 153 168 161 204 106 161 140 134 130 133 138 163 145 160 160 167 151 190 146 202 152 186 139 148 194 143 115 174 133 134 156 132 145 118 151 113 139 145 139 155 123 114 150 115 149 166 149 141 147 125 119 148 129 137 144 119 169 196 169 205 159 145 106 166 164 214 36 190 158 95 139 23 103 76 125 95 136 54 138 118 125 61 156 99 164 117 167 185 83 101 144 85 177 10 129 64 98 92 102 92 134 94 122 48 133 -19 117 114 115 125 178 47 209 24 71 217 164 80 92 108 103 117 205 49 196 32 158 90 134 131 131 207 91 88 195 154 212 148 164 171 142 169 178 170 185 166 215 180 205 147 190 165 178 162 189 238 161 143 132 62 195 105 189 198 124 124 206 148 170 137 171 117 136 139 166 146 123 128 168 110 116 133 205 139 197 175 107 76 97 161 100 123 128 67 194 117 148 140 199 104 125 212 -193 138 276 57 212 118 141 163 167 59 167 154 84 185 163 70 151 153 145 105 108 199 150 22 22 220 123 97 169 80 122 49 99 128 34 184 78 70 68 11 129 123 78 64 99 192 62 96 131 82 44 81 118 93 12 141 120 83 94 37 24 90 195 136 38 102 44 14 158 196 12 102 96 85 214 121 74 9 89 49 55 185 31 10 194 77 51 109 19 112 180 110 124 159 88 88 41 13 198 77 32 125 49 50 122 61 32 -15 101 142 108 86 47 41 94 74 166 149 -1 79 146 -17 128 144 55 69 28 69 25 60 203 83 106 127 153 47 76 56 193 27 79 212 -12 66 56 21 180 169 53 1 158 49 100 152 183 130 134 134 81 162 147 84 95 69 87 92 113 121 106 46 157 45 40 148 92 136 81 6 15 102 100 116 172 63 63 97 170 95 20 165 86 66 177 85 77 113 10 188 133 35 222 117 -10 186 110 -89 85 239 19 35 66 139 67 115 90 128 132 141 63 114 153 179 85 60 134 154 55 146 100 122 37 97 59 89 41 120 120 77 33 132 101 92 85 107 116 105 1 68 145 62 46 82 86 
#avF[uV]
4037 7123 3157 6251 2274 5372 1409 4489 525 3608 -337 -373 -374 -372 -379 -396 -393 -375 -403 -387 -395 -403 -404 -410 -419 -407 -430 -423 -424 -450 -452 -438 -434 -428 -420 -392 -409 -363 -386 -358 -390 -394 -416 -449 -447 -419 -455 -391 -436 -333 -457 -306 9 -224 -596 -625 -654 -559 -674 -550 -620 -513 -588 -567 -569 -468 -563 -490 -542 -470 -523 -414 -517 -380 -517 -395 -515 -401 -527 -464 -524 -534 -534 -428 -546 -421 -533 -424 -535 -452 -542 -480 -537 -445 -538 -443 -525 -461 -525 -426 -513 -491 -498 -408 -491 -352 -493 -535 -505 -497 -532 -449 -538 -538 -530 -540 -500 -147 -323 -429 -515 -549 -557 -485 -549 -545 -527 -496 -497 -466 -496 -482 -487 -425 -468 -398 -438 -395 -407 -392 -428 -360 -475 -397 -488 -465 -487 -465 -472 -458 -448 -500 -465 -437 -467 -431 -482 -507 -457 -472 -467 -449 -448 -422 -475 -524 -426 -357 -423 -414 -474 -490 -471 -405 -507 -493 -508 -519 -525 -218 96 -359 -621 -565 -602 -482 -538 -487 -515 -474 -488 -483 -477 -444 -449 -457 -496 -458 -439 -415 -424 -400 -389 -304 -437 -439 -519 -486 -468 -453 -452 -414 -479 -484 -460 -471 -468 -399 -484 -435 -508 -470 -412 -424 -482 -497 -475 -383 -413 -454 -435 -391 -476 -504 -495 -443 -511 -414 -540 -572 -609 -168 251 -348 -590 -611 -572 -501 -532 -468 -561 -521 -474 -462 -448 -462 -486 -476 -522 -446 -412 -451 -351 -379 -367 -386 -417 -397 -510 -475 -455 -502 -429 -544 -430 -400 -499 -509 -454 -421 -472 -508 -515 -545 -397 -436 -464 -499 -537 -518 -514 -464 -407 -396 -393 -478 -419 -498 -556 -477 -521 -520 -473 -640 -628 -530 47 -56 -626 -798 -698 -718 -631 -639 -581 -641 -564 -705 -591 -673 -582 -631 -586 -569 -465 -590 -499 -557 -475 -612 -511 -601 -487 -539 -510 -578 -657 -538 -537 -719 -517 -599 -445 -615 -603 -616 -578 -611 -495 -497 -636 -591 -429 -553 -561 -575 -575 -606 -536 -585 -523 -544 -396 -594 -470 -572 -718 -502 -499 -566 -617 -578 -785 -417 611 -406 -1029 -560 -677 -614 -749 -605 -612 -603 -601 -593 -567 -549 -611 -531 -621 -573 -479 -506 -472 -471 -505 -475 -495 -516 -551 -483 -594 -501 -553 -573 -510 -509 -578 -503 -605 -539 -519 -503 -550 -532 -553 -505 -505 -494 -582 -507 -513 -513 -478 -494 -514 -482 -515 -507 -588 -509 -400 -461 -422 -453 -502 -460 -591 -481 -514 -497 -640 -472 -626 -381 276 -404 -805 -478 -639 -557 -558 -563 -572 -545 -555 -531 -505 -530 -626 -525 -473 -504 -443 -474 -444 -456 -431 -433 -468 -454 -436 -460 -517 -477 -498 -491 -477 -488 -486 -501 -441 -492 -475 -499 -473 -514 -482 -478 -515 -478 -382 -485 -499 -476 -567 -480 -421 -468 -427 -460 -382 -454 -512 -461 -529 -478 -471 -489 -515 -454 -664 -435 125 -465 -585 -461 -646 -515 -536 -532 -562 -536 -531 -533 -525 -496 -587 -509 -456 -480 -445 -460 -398 -446 -399 -455 -366 -461 -480 -484 -397 -499 -484 -508 -454 -508 -507 -463 -451 -472 -425 -487 -416 -496 -398 -492 -499 -476 -373 -474 -411 -474 -298 -479 -321 -513 -362 -469 -476 -469 -427 -461 -472 -436 -453 -436 -103 -443 -502 -465 -483 -503 -485 -531 -461 -522 -516 -510 -477 -490 -424 -477 -430 -465 -398 -443 -408 -442 -401 -444 -422 -442 -383 -460 -427 -465 -467 -482 -472 -482 -417 -474 -402 -479 -463 -480 -440 -485 -443 -468 -442 -470 -474 -461 -443 -459 -454 -468 -368 -462 -402 -465 -439 -468 -479 -454 -475 -436 -453 -411 -357 -448 -256 -468 -454 -535 -508 -530 -576 -574 -564 -578 -544 -548 -548 -530 -568 -520 -522 -503 -493 -493 -456 -480 -452 -474 -477 -467 -499 -471 -504 -486 -521 -498 -534 -496 -520 -491 -493 -490 -499 -489 -517 -480 -515 -463 -513 -498 -482 -490 -492 -478 -483 -472 -445 -460 -440 -464 -458 -478 -491 -497 -511 -471 -490 -475 -434 -466 -407 -474 -392 -488 -483 -492 -558 -535 -578 -568 -556 -554 -541 -530 -521 -511 -490 -490 -448 -467 -441 -448 -416 -443 -434 -450 -447 -464 -484 -479 -498 -492 -500 -484 -483 -479 -481 -477 -473 -465 -476 -460 -467 -460 -475 -461 -480 -467 -500 -464 -496 -457 -468 -437 -440 -438 -421 -433 -436 -487 -460 -489 -504 -467 -477 -453 -367 -453 -385 -220 -356 -489 -415 -503 -497 -519 -515 -531 -492 -521 -474 -507 -459 -472 -449 -454 -420 -437 -399 -430 -388 -430 -376 -445 -390 -472 -423 -457 -444 -467 -480 -466 -475 -464 -462 -460 -441 -458 -445 -452 -459 -462 -457 -470 -471 -470 -467 -467 -471 -461 -451 -445 -427 -442 -414 -438 -445 -462 -466 -460 -485 -463 -468 -452 -398 -444 -353 -410 -320 -481 -491 -499 -493 -501 -504 -494 -475 -501 -458 -472 -461 -453 -455 -445 -422 -429 -384 -410 -417 -431 -403 -432 -411 -439 -438 -455 -422 -457 -456 -464 -423 -451 -397 -455 -404 -463 -420 -458 -381 -462 -395 -446 -388 -440 -401 -415 -335 -398 -340 -437 -379 -449 -396 -462 -336 -443 -347 -418 -375 -337 -135 -477 -543 -516 -625 -588 -518 -567 -461 -547 -523 -547 -640 -531 -462 -513 -457 -509 -429 -513 -392 -488 -288 -511 -424 -510 -470 -514 -463 -515 -462 -517 -530 -515 -460 -502 -453 -504 -423 -501 -534 -516 -436 -519 -501 -497 -504 -473 -492 -468 -333 -459 -473 -477 -536 -508 -481 -522 -394 -532 -527 -493 -581 -333 3 -580 -751 -640 -656 -628 -553 -601 -619 -599 -601 -595 -609 -588 -543 -583 -598 -544 -508 -510 -451 -503 -505 -500 -511 -548 -510 -536 -549 -544 -569 -561 -472 -530 -601 -520 -560 -526 -476 -534 -562 -524 -530 -554 -507 -542 -589 -521 -542 -530 -492 -544 -469 -500 -459 -510 -502 -487 -575 -544 -503 -540 -491 -593 -659 -601 -95 136 -471 -632 -609 -633 -453 -563 -514 -492 -508 -496 -496 -478 -498 -555 -447 -443 -430 -395 -484 -372 -395 -423 -405 -417 -406 -462 -448 -493 -528 -443 -430 -478 -448 -401 -444 -429 -414 -454 -431 -431 -462 -410 -426 -358 -434 -514 -409 -390 -449 -489 -414 -418 -425 -318 -356 -337 -414 -470 -496 -461 -377 -451 -403 -642 -645 -612 -62 692 -386 -900 -670 -728 -594 -707 -650 -521 -703 -622 -611 -646 -680 -593 -652 -576 -695 -557 -499 -509 -580 -523 -577 -478 -518 -521 -653 -550 -572 -579 -652 -569 -587 -508 -576 -574 -671 -502 -538 -531 -594 -604 -644 -465 -624 -545 -559 -622 -610 -510 -589 -563 -495 -411 -592 -647 -504 -384 -442 -504 -508 -463 -542 -495 -540 -658 -571 -511 -626 -645 -256 189 -481 -706 -520 -600 -517 -502 -540 -553 -522 -524 -449 -417 -491 -463 -458 -481 -449 -425 -439 -358 -437 -395 -393 -344 -398 -460 -446 -501 -449 -439 -427 -395 -447 -506 -407 -394 -386 -413 -443 -444 -421 -423 -422 -482 -412 -359 -410 -454 -416 -428 -438 -456 -407 -361 -358 -365 -391 -436 -445 -546 -407 -388 -429 -482 -403 -497 -132 126 -374 -541 -409 -473 -476 -449 -453 -426 -432 -425 -433 -502 -408 -379 -394 -406 -373 -378 -351 -308 -335 -277 -339 -321 -387 -449 -402 -391 -408 -367 -409 -376 -390 -426 -425 -340 -443 -426 -395 -336 -400 -371 -379 -415 -378 -369 -388 -424 -368 -280 -369 -334 -388 -427 -404 -437 -413 -418 -391 -456 -354 -463 -334 276 -375 -604 -426 -640 -534 -522 -556 -568 -555 -509 -509 -592 -508 -467 -507 -493 -486 -463 -465 -415 -441 -380 -439 -361 -459 -454 -472 -536 -486 -434 -489 -491 -499 -488 -485 -460 -470 -375 -482 -452 -468 -367 -474 -453 -479 -497 -459 -441 -464 -366 -442 -376 -440 -321 -450 -401 -457 -396 -464 -430 -433 -503 -357 -294 -378 -84 -359 -413 -410 -405 -472 -465 -503 -358 -495 -453 -464 -415 -455 -354 -428 -382 -413 -306 -398 -319 -376 -331 -392 -356 -404 -327 -426 -381 -408 -385 -421 -393 -419 -399 -419 -361 -393 -360 -402 -376 -391 -398 -396 -401 -390 -415 -393 -421 -398 -398 -392 -387 -397 -351 -385 -364 -398 -404 -425 -436 -434 -402 -405 -417 -339 -275 -95 -166 -361 -324 -413 -409 -457 -458 -462 -447 -451 -429 -441 -449 -403 -404 -396 -375 -387 -354 -370 -330 -355 -324 -350 -360 -377 -376 -380 -407 -389 -419 -402 -400 -405 -395 -399 -396 -404 -413 -407 -418 -412 -428 -422 -422 -426 -431 -418 -430 -406 -405 -401 -389 -393 -379 -406 -414 -416 -456 -419 -458 -406 -394 -392 -294 -438 -402 -458 -437 -549 -590 -575 -691 -633 -660 -628 -627 -623 -586 -601 -555 -584 -535 -559 -502 -534 -510 -525 -490 -518 -489 -523 -505 -536 -534 -551 -558 -566 -557 -573 -542 -552 -518 -548 -529 -541 -533 -533 -536 -532 -522 -537 -527 -539 -554 -533 -543 -540 -506 -532 -520 -505 -503 -524 -527 -526 -560 -515 -580 -479 -504 -465 -403 -482 -486 -465 -448 -494 -583 -498 -649 -482 -585 -510 -567 -515 -549 -499 -538 -479 -527 -457 -500 -441 -476 -409 -470 -380 -475 -375 -445 -476 -480 -486 -497 -490 -492 -489 -474 -482 -460 -465 -463 -460 -450 -464 -446 -461 -456 -453 -403 -499 -406 -448 -375 -424 -354 -422 -378 -459 -432 -467 -444 -473 -423 -452 -347 -436 -305 -140 -369 -455 -431 -489 -492 -489 -512 -492 -486 -477 -480 -475 -503 -456 -466 -445 -458 -397 -445 -370 -384 -428 -380 -398 -391 -434 -403 -447 -428 -458 -435 -451 -430 -447 -401 -443 -425 -436 -399 -464 -412 -452 -418 -456 -447 -448 -408 -429 -351 -424 -377 -411 -408 -445 -380 -459 -400 -457 -367 -401 -415 -428 -327 -63 -251 -493 -475 -505 -417 -502 -442 -484 -427 -477 -414 -462 -420 -452 -358 -446 -334 -425 -329 -394 -361 -361 -272 -400 -311 -436 -334 -433 -348 -422 -436 -424 -390 -442 -371 -431 -396 -426 -418 -420 -361 -427 -405 -454 -397 -464 -438 -391 -416 -426 -406 -376 -328 -389 -347 -472 -380 -486 -422 -466 -370 -445 -466 -418 -438 -204 118 -521 -703 -592 -586 -599 -529 -566 -493 -591 -570 -579 -591 -580 -502 -546 -488 -490 -516 -472 -413 -466 -436 -456 -435 -446 -425 -510 -478 -536 -531 -503 -477 -532 -452 -497 -496 -508 -522 -502 -480 -538 -490 -497 -463 -519 -504 -479 -523 -530 -509 -538 -521 -456 -414 -424 -434 -431 -478 -480 -437 -517 -483 -497 -476 -577 -559 -579 -319 505 3 -761 -761 -699 -509 -577 -481 -549 -499 -541 -546 -494 -538 -523 -582 -522 -414 -477 -452 -418 -468 -473 -354 -352 -537 -492 -414 -568 -459 -503 -472 -504 -563 -455 -473 -474 -487 -459 -413 -497 -519 -473 -495 -499 -532 -482 -459 -501 -490 -470 -446 -493 -480 -459 -555 -500 -452 -424 -415 -319 -372 -615 -532 -477 -494 -416 -422 -592 -607 -567 -535 112 127 -595 -816 -666 -536 -528 -536 -560 -614 -499 -464 -553 -556 -500 -498 -439 -473 -478 -484 -484 -475 -362 -373 -368 -359 -481 -393 -463 -484 -458 -566 -465 -442 -354 -451 -527 -486 -449 -444 -398 -370 -449 -543 -499 -493 -349 -417 -553 -377 -432 -539 -412 -429 -320 -398 -345 -448 -484 -391 -488 -475 -491 -443 -492 -584 -502 40 293 -263 -543 -607 -496 -442 -454 -494 -438 -381 -434 -410 -445 -541 -357 -448 -404 -338 -291 -308 -336 -297 -274 -274 -279 -341 -368 -454 -425 -382 -399 -364 -373 -413 -353 -441 -390 -373 -375 -385 -333 -394 -383 -376 -331 -433 -383 -407 -356 -424 -341 -358 -361 -326 -317 -392 -299 -438 -458 -408 -411 -417 -443 -515 -190 307 185 -430 -486 -372 -407 -410 -317 -400 -318 -377 -438 -348 -334 -351 -401 -362 -235 -257 -269 -320 -176 -271 -289 -309 -177 -333 -258 -300 -371 -323 -371 -307 -326 -339 -319 -335 -293 -361 -342 -335 -292 -290 -370 -294 -280 -306 -335 
