ADC Sampling rate (Hz):
100
Fragment duration (sec):
20
Number of samples exported by each lead:
1999

#I[uV]
13946 12693 11497 10193 8453 6976 5624 4193 2825 1457 37 50 63 63 72 91 77 90 103 104 112 143 152 186 233 293 331 365 390 411 374 330 248 186 123 52 4 3 -5 -7 -5 5 -11 -13 3 2 25 16 23 25 2 26 -3 -4 -16 -4 8 7 -3 -2 -11 13 17 -18 -27 0 27 3 -5 2 10 -7 16 18 1 -3 39 49 19 84 92 92 106 50 6 5 -8 17 -4 101 330 356 185 -89 3 -5 -51 -11 -35 -19 -36 -5 -15 -31 2 10 14 43 39 62 86 107 161 196 251 308 332 353 334 299 216 146 69 19 -2 -65 -63 -39 -57 -67 -33 -37 -42 -41 -43 -33 -44 -39 -39 -46 -27 -3 -39 -53 -58 -40 -40 -41 -65 -35 -28 -68 -53 -41 -58 -48 -25 -46 -47 -30 -42 -27 -46 -44 -44 -53 -32 -21 -24 -23 -14 -22 -7 14 25 42 79 63 45 37 -5 -33 16 -23 65 246 386 288 -51 -12 -3 -56 -37 -54 -39 -12 -22 -35 -9 -19 -18 5 6 18 51 62 88 140 192 235 270 315 329 340 301 260 208 151 70 2 -14 -25 -33 -34 -31 -25 -3 -6 -35 3 -2 -11 -9 7 -27 -27 11 -24 -13 -23 -31 -12 -33 -27 -41 -47 -9 -10 -26 -38 -31 -46 -6 -21 -32 -33 -21 -25 -32 -16 -35 -11 -27 -30 -14 -17 -10 -19 -3 -11 -15 27 33 32 42 88 95 67 40 -9 -8 -3 10 92 202 400 342 -9 -3 13 -14 -1 -1 7 -15 10 14 28 28 29 67 78 87 112 115 129 177 255 313 349 387 399 428 401 352 277 210 144 97 84 68 78 76 63 87 75 90 64 94 120 105 104 115 113 123 124 120 120 106 113 111 98 121 110 91 112 124 99 125 116 122 122 123 146 135 138 125 127 146 135 146 161 174 186 200 220 251 261 281 198 173 194 158 202 213 337 515 385 139 112 208 215 176 190 183 202 191 199 233 205 223 242 239 266 283 293 314 357 418 439 502 553 563 565 574 532 427 360 287 257 210 214 207 170 176 190 192 215 200 210 206 249 224 224 233 229 222 229 217 251 233 205 220 231 221 217 221 218 230 209 199 200 219 196 196 207 208 208 220 208 192 168 187 205 196 209 235 238 247 255 292 256 224 172 171 176 172 251 373 540 464 134 168 172 140 155 133 163 151 160 172 163 172 186 196 219 222 238 265 278 333 390 423 469 518 542 553 527 489 393 314 256 216 178 177 154 149 151 141 158 168 169 153 166 187 172 177 179 173 161 175 163 147 159 169 143 167 152 169 167 151 150 162 172 167 171 166 161 167 169 183 151 180 167 181 155 179 178 168 164 182 190 166 168 179 179 200 194 218 240 254 258 222 182 156 167 161 153 235 416 610 381 106 175 191 123 133 123 129 124 136 143 154 168 197 185 185 209 224 239 288 323 379 434 481 510 538 541 531 470 400 316 256 209 176 165 164 157 150 149 161 151 170 161 174 162 161 173 183 157 172 160 170 158 151 152 153 147 162 138 145 115 156 185 143 154 153 163 157 147 147 133 156 171 157 160 174 151 166 143 170 157 153 172 162 184 189 209 230 218 236 218 169 143 124 158 148 278 427 376 309 59 122 150 94 143 118 115 115 141 134 122 137 158 160 150 184 191 246 276 285 347 389 438 464 470 482 428 371 308 230 159 134 106 112 77 99 87 87 91 102 82 99 85 109 96 92 99 98 76 82 79 86 78 93 72 74 86 52 53 78 73 74 58 70 72 72 77 85 109 116 133 156 147 132 90 72 94 58 52 167 388 466 198 -13 72 83 23 72 46 70 58 78 76 79 76 89 105 114 100 137 166 199 224 283 335 378 391 412 387 365 302 225 138 99 42 31 21 6 -12 19 8 19 32 37 32 50 39 49 49 52 32 32 33 21 22 37 27 18 14 18 16 29 6 17 22 34 34 36 10 14 17 20 5 28 13 46 29 21 29 43 48 71 80 102 105 86 51 14 9 25 17 123 248 385 291 -6 25 0 -37 -14 -39 5 3 0 13 15 18 23 24 35 61 84 94 115 156 188 254 307 314 347 345 314 244 184 115 58 -8 -23 -50 -56 -48 -49 -76 -62 -48 -57 -66 -49 -32 -57 -61 -43 -53 -61 -60 -47 -76 -52 -53 -66 -74 -60 -61 -60 -48 -73 -66 -64 -79 -65 -60 -58 -53 -75 -59 -60 -72 -74 -46 -45 -69 -58 -58 -65 -66 -67 -70 -47 -70 -60 -49 -26 -22 -11 3 8 1 -32 -84 -66 -77 -57 31 130 337 221 -102 -54 -79 -118 -95 -88 -77 -106 -95 -57 -70 -72 -54 -55 -54 -27 7 18 51 36 -24 24 89 164 191 224 242 184 111 56 -12 -40 -74 -77 -91 -81 -69 -86 -86 -64 -60 -41 -64 -48 -37 -38 -41 -26 -32 -37 -54 -39 -52 -52 -38 -62 -57 -38 -38 -50 -49 -33 -35 -39 -52 -40 -22 -47 -52 -37 -24 -14 -29 -41 -25 -31 -38 -21 -19 7 15 34 68 70 -23 -81 -42 -98 -58 -1 64 272 302 -24 -160 -26 -39 -76 -62 -66 -64 -45 -45 -72 -25 -38 -34 -17 -1 16 43 63 109 124 175 255 280 305 303 292 270 192 117 32 -16 -40 -77 -87 -86 -74 -74 -97 -99 -72 -42 -54 -71 -63 -61 -60 -73 -56 -83 -70 -75 -65 -73 -85 -62 -75 -69 -69 -70 -79 -68 -79 -79 -68 -69 -68 -93 -66 -80 -68 -46 -45 -24 -20 -1 17 -10 -50 -86 -48 -56 -92 2 133 319 213 -94 -52 -68 -95 -87 -88 -87 -73 -50 -61 -53 -51 -66 -44 -34 -23 -13 22 33 56 113 157 237 260 260 271 257 216 114 43 -20 -53 -55 -94 -85 -96 -89 -91 -92 -89 -86 -71 -40 -48 -70 -69 -66 -56 -57 -33 -57 -67 -66 -77 -65 -55 -74 -54 -52 -58 -74 -69 -44 -60 -55 -56 -89 -67 -66 -65 -57 -46 -61 -56 -45 -73 -59 -59 -54 -53 -76 -36 -30 -25 -4 11 37 41 19 -8 -35 -48 -67 -48 55 207 358 273 -63 -35 -36 -90 -46 -70 -48 -63 -64 -52 -50 -27 -30 -22 -34 7 14 28 79 93 138 200 226 275 304 304 284 227 163 86 16 -37 -62 -75 -78 -77 -82 -80 -83 -84 -96 -86 -64 -66 -76 -65 -51 -53 -61 -69 -68 -54 -45 -64 -70 -71 -82 -93 -87 -118 -128 -150 -155 -192 -210 -188 -243 -295 -312 -379 -427 -492 -539 -678 -805 -941 -1004 -1107 -1212 -1267 -1348 -1335 -1485 -1445 -1533 -1463 -1548 -1477 -1490 -1510 -1533 -1545 -1549 -1576 -1601 -1620 -1429 -801 -588 -895 -900 -882 -519 -584 -364 -340 -279 -258 -284 -288 -327 -380 -478 -563 -583 -626 -645 -633 -618 -629 -570 -549 -520 -490 -485 -497 -518 -580 -657 -728 -797 -819 -876 -864 -852 -878 -861 -873 -843 -845 -822 -809 -809 -796 -794 -783 -746 -747 -739 -723 -722 -706 -707 -694 -684 -658 -666 -663 -640 -619 -580 -580 -573 -564 -567 -545 -534 -533 -508 -497 -486 -462 -458 -455 -416 -384 -373 -376 -309 -300 -311 -364 -373 -350 -342 -323 -267 -202 66 213 -319 -399 -220 -289 -230 -261 -208 -223 -190 -158 -155 -146 -136 -105 -109 -61 -36 -24 12 49 104 155 239 260 289 297 304 274 200 151 102 40 27 -5 7 18 28 2 59 59 51 65 75 87 113 87 96 118 122 122 123 107 129 131 121 155 165 144 147 160 162 185 204 185 184 213 239 239 273 291 311 312 253 233 241 239 232 318 476 577 512 189 246 299 268 279 249 299 298 295 317 316 352 321 353 361 365 381 425 441 494 551 581 637 670 668 714 648 621 535 466 411 383 354 339 321 349 349 339 340 374 372 381 368 403 392 381 403 375 375 393 381 394 372 409 383 394 383 394 372 376 388 388 360 386 398 397 384 391 393 406 398 403 387 400 426 436 448 492 460 488 466 413 405 384 436 427 587 712 491 612 420 387 455 356 418 371 382 393 406 413 399 424 433 439 481 441 503 522 503 576 624 691 715 742 746 757 738 668 589 517 471 445 399 400 390 387 377 391 384 406 393 404 406 409 410 406 402 403 408 411 411 408 400 391 393 392 395 413 406 400 399 418 392 387 414 409 386 408 407 391 391 389 400 404 390 396 385 403 404 405 427 424 430 468 453 490 456 425 383 356 372 381 533 652 598 647 388 372 392 313 337 324 338 355 342 349 363 375 359 383 394 406 394 446 451 500 537 586 636 682 693 699 675 612 532 484 397 353 314 326 318 284 302 300 291 299 308 298 287 316 282 292 298 293 303 284 288 287 287 274 275 284 287 279 267 268 278 290 272 272 278 276 261 282 265 272 267 274 271 261 280 271 268 247 272 269 265 309 288 316 314 326 336 293 256 245 228 243 276 358 575 606 294 172 229 206 204 207 197 199 205 218 202 228 239 229 275 265 261 291 329 339 359 440 492 519 538 556 544 521 425 382 315 229 207 182 166 153 162 159 141 174 177 180 175 164 174 174 178 169 147 169 172 156 170 145 148 158 144 153 144 165 145 142 160 144 156 162 162 152 157 164 169 149 154 199 196 211 219 242 250 220 140 126 136 141 153 250 411 536 333 68 109 129 79 115 97 122 136 117 106 126 126 139 143 142 172 204 203 225 268 315 367 424 444 472 459 440 367 321 220 155 120 92 84 73 64 76 81 79 68 81 92 88 91 95 80 91 75 94 79 78 78 80 67 81 72 77 51 56 56 54 59 53 56 60 62 73 51 63 63 59 63 58 61 55 37 69 63 73 70 94 91 118 162 149 158 121 67 68 42 44 94 200 363 487 215 7 85 37 4 41 17 49 46 41 68 62 62 70 45 94 105 111 154 165 204 252 308 371 373 411 397 363 301 231 170 85 56 36 3 22 6 
#II[uV]
-23017 -20534 -17417 -14515 -13463 -11741 -9269 -7033 -4674 -2448 -87 -108 -81 -82 -68 -46 -57 -53 -52 -51 -30 -6 7 20 61 118 161 183 220 241 243 210 168 119 72 2 -20 -46 -58 -58 -45 -58 -47 -58 -70 -47 -66 -61 -27 -46 -48 -59 -60 -71 -73 -62 -47 -51 -63 -74 -63 -63 -66 -90 -75 -71 -88 -51 -56 -76 -54 -64 -29 -45 -74 -37 17 42 38 25 72 74 45 12 -19 -9 -34 -19 -84 -43 691 1407 779 -204 -160 -105 -118 -77 -90 -72 -72 -51 -41 -67 -61 -26 -7 -7 16 38 51 69 127 150 193 250 271 281 307 308 243 205 167 117 86 37 34 58 30 30 73 45 25 42 42 40 37 43 54 19 4 25 50 13 -11 29 29 18 9 21 20 -3 11 11 -1 8 18 8 9 9 11 26 3 15 15 6 20 31 21 32 41 39 62 86 48 88 137 96 54 16 18 -40 76 -83 0 452 1260 1348 -9 -222 -37 -160 -99 -125 -110 -72 -73 -87 -61 -71 -68 -43 -42 -40 -20 -7 0 65 105 127 172 218 244 255 244 230 166 122 70 17 -9 -21 -21 -12 -44 -41 -19 -6 -31 -4 -8 -17 -6 10 -26 -25 0 -9 -24 -24 -36 -28 -40 -22 -37 -35 -22 -5 -45 -24 -27 -44 -33 -33 -33 -33 -23 -27 -39 -13 -48 -27 -25 -27 -12 -26 -32 -29 -13 -20 -22 48 60 48 59 81 64 19 -6 -6 -71 14 -89 -48 263 1123 1456 83 -278 -51 -193 -102 -168 -113 -130 -104 -100 -100 -99 -85 -60 -48 -55 -43 -28 -16 6 72 94 143 191 205 231 229 205 168 109 49 1 -22 -36 -46 -58 -61 -50 -50 -49 -52 -31 -18 -34 -36 -38 -53 -30 -54 -68 -75 -87 -74 -85 -97 -86 -86 -112 -90 -90 -112 -87 -98 -95 -83 -95 -72 -84 -71 -97 -107 -79 -79 -79 -51 -51 -4 -4 -5 38 36 12 -49 -50 -60 -52 -63 -117 169 914 1302 316 -218 -100 -123 -104 -127 -122 -107 -113 -110 -88 -92 -77 -45 -61 -35 -22 -12 -4 43 76 98 156 209 221 235 256 245 189 156 94 65 29 18 5 -14 -7 4 14 25 12 27 24 44 25 14 26 21 11 24 24 36 29 18 25 24 0 16 17 24 23 13 2 15 13 13 1 24 14 25 14 13 4 4 -13 21 1 51 90 68 80 105 95 51 -2 15 -71 36 -96 -14 360 1192 1340 -9 -258 -43 -152 -82 -130 -79 -108 -87 -87 -84 -68 -53 -56 -34 -30 -27 20 75 52 147 146 195 237 274 285 287 262 200 136 89 45 6 -4 -14 -25 -11 -37 -3 -3 -3 -16 -3 -7 3 -6 2 -7 -7 -7 -8 -23 -24 -23 -24 -24 -13 -13 -2 -35 -23 -21 -11 -21 -21 -29 -28 -27 -14 -13 -25 -14 -14 -15 -15 -4 3 -17 -7 -5 4 -6 -6 -6 -5 34 51 50 74 71 61 27 -23 0 -50 31 -76 -19 500 1309 1080 -82 -184 -41 -122 -86 -106 -91 -103 -90 -69 -69 -55 -33 -33 -32 3 6 27 41 80 120 179 204 259 273 292 292 270 223 167 100 61 16 16 -8 -5 -15 -2 -15 -14 -4 19 5 -7 -17 -4 -4 -16 -13 -16 -16 -16 -40 -14 -37 -39 -51 -22 -46 -15 -28 -43 -32 -32 -34 -23 -21 -33 -33 -23 -23 1 -26 -12 -9 -9 1 -13 -11 -1 -15 15 1 59 67 40 71 72 49 34 -3 -8 -46 12 -88 118 708 1232 748 -79 -113 -77 -115 -104 -105 -108 -97 -71 -81 -71 -69 -51 -63 -41 -17 -7 27 46 46 119 123 174 199 242 242 246 211 189 124 75 36 -5 -1 -8 -10 15 -19 20 -3 -3 -3 4 -5 5 -6 14 2 -9 -23 1 -10 3 -6 -6 -5 9 -34 -5 -4 2 -8 1 1 13 2 23 56 91 68 118 106 58 46 31 9 38 27 -32 80 794 1525 775 -107 -69 -52 -56 -86 -55 -55 -47 -38 -25 -25 -14 8 0 -1 22 23 86 68 109 144 196 229 263 285 296 273 251 200 166 105 80 41 43 5 10 30 30 30 43 29 40 52 51 51 51 38 39 27 43 31 42 42 43 31 31 19 31 31 20 20 31 42 47 24 24 34 22 26 26 26 36 30 15 18 53 66 107 81 105 115 93 56 21 -17 -30 28 -48 11 565 1362 1067 -102 -193 -67 -104 -82 -100 -78 -93 -72 -73 -60 -44 -44 -43 -21 -10 -14 13 36 69 114 156 209 243 265 291 262 236 188 107 71 15 -10 -14 -40 -30 -30 -42 -42 -42 -41 -30 -30 -14 -40 -39 -28 -29 -38 -38 -38 -50 -50 -51 -52 -66 -49 -49 -48 -48 -74 -64 -60 -49 -61 -40 -50 -40 -52 -52 -52 -49 -61 -46 -45 -58 -47 -62 -72 -67 -67 -55 -55 -44 -46 2 25 3 28 43 11 -11 -60 -44 -116 -30 -133 -81 397 1239 1158 -120 -255 -85 -196 -149 -163 -135 -138 -126 -125 -101 -101 -87 -90 -66 -55 -32 -20 2 12 56 95 148 208 222 234 222 199 148 91 44 1 -32 -59 -70 -70 -97 -81 -69 -81 -58 -61 -61 -61 -83 -72 -88 -88 -88 -78 -78 -88 -89 -89 -79 -104 -88 -77 -91 -101 -89 -102 -91 -118 -104 -93 -83 -107 -107 -103 -91 -102 -87 -99 -114 -111 -104 -68 -44 -34 -46 -27 -16 -63 -103 -127 -127 -121 -174 -184 12 809 1445 330 -336 -199 -247 -189 -239 -194 -205 -168 -180 -180 -179 -160 -132 -143 -122 -122 -109 -75 -29 -29 12 69 98 133 156 168 164 143 95 9 -12 -36 -47 -83 -72 -60 -60 -70 -75 -64 -68 -40 -46 -58 -45 -55 -55 -57 -59 -59 -49 -49 -60 -72 -84 -57 -47 -59 -47 -72 -45 -45 -47 -35 -35 -45 -55 -38 -31 -18 34 58 34 72 78 46 32 -11 1 -72 30 -90 -27 439 1290 1333 7 -197 -27 -126 -60 -93 -62 -73 -71 -68 -35 -35 -37 -2 8 30 41 54 81 104 151 179 261 299 324 312 292 293 238 177 124 81 65 37 37 37 42 41 40 40 54 32 59 72 61 61 61 61 51 61 51 52 63 40 51 62 41 57 56 24 38 47 35 46 46 58 53 34 48 48 52 62 35 31 56 56 52 52 41 53 42 66 93 104 102 139 142 119 95 57 75 10 79 -34 55 491 1332 1411 25 -146 23 -77 -8 -79 -39 -39 -30 -7 -18 5 5 27 16 46 59 59 111 112 125 220 258 308 320 338 341 304 254 213 153 88 75 40 38 40 14 36 24 34 44 44 56 48 48 36 26 39 28 38 26 15 29 29 19 19 19 8 18 13 29 19 26 0 -10 17 7 3 5 6 -4 10 2 2 2 -7 4 2 0 1 12 13 -3 1 47 73 52 96 85 48 24 2 -9 -26 -19 -59 95 773 1493 690 -207 -87 -83 -83 -116 -65 -91 -83 -86 -84 -49 -61 -38 -48 -18 -6 -38 15 38 57 102 137 179 228 242 265 254 227 162 121 52 18 -29 -40 -39 -49 -54 -43 -47 -60 -49 -23 -47 -53 -52 -41 -44 -43 -53 -68 -68 -55 -68 -75 -89 -52 -75 -75 -78 -67 -67 -56 -73 -66 -77 -66 -66 -65 -65 -54 -54 -43 -68 -78 -36 -11 -11 1 39 36 -30 -72 -71 -81 -47 -102 -114 211 976 1314 222 -268 -130 -178 -136 -191 -156 -171 -160 -115 -128 -117 -122 -111 -114 -77 -64 -66 -53 -16 11 42 90 127 141 164 185 171 121 84 48 6 -44 -74 -85 -74 -72 -85 -63 -63 -80 -80 -65 -76 -87 -62 -72 -72 -81 -81 -78 -82 -79 -95 -93 -81 -98 -98 -98 -101 -78 -88 -82 -65 -71 -12 7 -36 21 27 27 6 -49 -23 -101 4 -131 -54 396 1194 1276 2 -232 -67 -168 -99 -160 -106 -129 -105 -115 -81 -64 -78 -58 -25 -51 -13 -2 35 49 95 131 176 205 218 226 265 200 189 108 96 57 30 2 -15 -1 -1 -1 13 13 25 12 12 35 24 24 24 11 0 3 5 -7 3 12 -3 10 -3 -14 -14 -10 1 -9 -19 -9 -11 -1 -11 -20 -7 -28 -18 -14 -15 -3 55 56 55 79 43 19 -4 -41 -31 -62 3 -113 109 760 1194 608 -154 -144 -104 -122 -132 -133 -134 -147 -110 -120 -107 -107 -109 -76 -64 -64 -51 -31 15 15 104 131 191 206 241 241 228 193 128 74 30 -12 -23 -35 -45 -54 -39 -51 -37 -37 -24 -25 -13 -24 -14 -14 -6 -18 -24 -31 -29 -30 -17 -31 -18 -18 -20 -19 -3 -14 -15 -15 -22 -22 -10 -10 -25 -12 11 -14 -4 -3 -3 0 0 -14 -1 10 -2 -2 60 55 54 71 73 42 29 -12 -4 -84 18 -90 52 569 1185 961 -96 -223 -75 -191 -171 -199 -149 -177 -167 -180 -169 -169 -160 -162 -151 -150 -138 -110 -89 -69 -18 4 66 90 127 132 143 83 43 -5 -88 -138 -155 -170 -157 -205 -177 -177 -180 -190 -169 -179 -168 -168 -156 -170 -169 -185 -174 -186 -174 -186 -175 -175 -162 -174 -160 -172 -161 -172 -173 -161 -164 -164 -147 -145 -159 -159 -162 -161 -166 -167 -146 -156 -137 -138 -140 -151 -130 -130 -102 -69 -58 -71 -46 -58 -93 -134 -123 -175 -113 -194 -204 12 843 1424 216 -389 -218 -293 -189 -262 -212 -253 -222 -210 -203 -192 -199 -197 -164 -167 -144 -143 -106 -95 -50 -15 26 64 110 119 131 133 89 29 -2 -74 -97 -121 -122 -148 -135 -146 -146 -132 -128 -122 -124 -134 -111 -125 -118 -128 -137 -126 -126 -136 -124 -133 -132 -129 -146 -131 -118 -120 -118 -118 -92 -109 -97 -98 -117 -100 -101 -87 -70 -82 -57 -10 11 -5 44 31 20 -21 -57 -71 -58 -48 -91 2 660 1436 739 -213 -186 -151 -132 -153 -140 -139 -124 -124 -124 -116 -81 -89 -89 -77 -35 -25 -4 -9 33 81 131 178 228 229 254 232 193 148 103 41 17 -15 -26 -49 -34 -34 -22 -49 -35 -35 -10 -35 -13 -30 -29 -31 -33 -44 -44 -57 -42 -60 -73 -74 -44 -67 -67 -66 -56 -79 -65 -86 -60 -72 -58 -58 -78 -75 -63 -73 -62 -62 -51 -60 -57 -57 -57 -57 -37 -1 11 -6 56 29 2 -33 -56 -78 -64 -105 -104 43 775 1505 522 -270 -115 -159 -120 -175 -130 -153 -122 -125 -101 -103 -103 -81 -70 -59 -45 -45 -23 2 55 67 141 188 220 258 267 255 206 153 114 37 5 -26 -39 -38 -28 
#III[uV]
-36964 -33227 -28915 -24709 -21917 -18717 -14893 -11226 -7499 -3906 -124 -159 -144 -145 -141 -137 -135 -143 -156 -156 -142 -149 -145 -166 -172 -174 -169 -182 -170 -170 -130 -120 -80 -66 -50 -50 -25 -50 -53 -50 -39 -63 -36 -45 -74 -50 -92 -78 -51 -72 -50 -85 -56 -67 -57 -57 -56 -58 -59 -71 -52 -76 -84 -72 -47 -71 -115 -54 -51 -79 -64 -56 -46 -63 -76 -33 -22 -6 18 -59 -19 -17 -60 -38 -26 -15 -26 -37 -79 -145 360 1050 594 -114 -163 -99 -67 -66 -54 -52 -36 -46 -26 -36 -64 -37 -21 -51 -23 -24 -35 -38 -34 -46 -57 -57 -61 -71 -27 8 26 59 98 98 89 102 98 98 87 98 106 83 67 83 85 73 82 82 94 66 31 29 90 66 46 70 70 59 74 57 49 65 65 53 56 56 44 54 56 39 53 54 49 60 60 60 52 52 45 55 56 61 70 71 22 46 57 33 8 -21 23 -7 60 -59 -65 206 874 1059 41 -210 -33 -104 -61 -70 -71 -59 -51 -51 -52 -52 -50 -48 -48 -59 -72 -69 -87 -75 -87 -108 -97 -96 -84 -84 -56 -30 -41 -29 0 14 4 4 11 21 -13 -16 -16 0 3 -7 -5 -5 3 3 1 1 -11 14 -11 -1 -4 -16 -6 4 4 11 -12 5 -19 14 4 1 -26 -12 0 0 -1 -1 -7 2 -13 -15 2 2 2 -8 -22 -9 -10 -8 -6 20 27 16 17 -7 -30 -48 -47 2 -63 17 -99 -140 61 722 1114 93 -275 -64 -178 -100 -167 -120 -114 -114 -114 -129 -128 -114 -127 -127 -142 -156 -144 -145 -170 -182 -218 -205 -195 -194 -196 -171 -147 -109 -101 -95 -95 -107 -104 -125 -134 -124 -137 -125 -139 -116 -126 -139 -139 -141 -153 -167 -153 -178 -189 -196 -194 -187 -197 -196 -208 -197 -204 -202 -214 -212 -212 -214 -218 -206 -219 -219 -220 -209 -222 -234 -225 -214 -226 -213 -226 -191 -204 -225 -213 -225 -269 -247 -224 -254 -210 -265 -331 -168 398 917 176 -331 -309 -338 -281 -318 -306 -310 -304 -309 -322 -298 -300 -288 -300 -302 -305 -305 -319 -313 -341 -341 -346 -343 -341 -330 -318 -286 -237 -203 -192 -192 -180 -196 -201 -184 -184 -186 -177 -190 -188 -183 -182 -204 -199 -209 -207 -207 -210 -204 -193 -215 -204 -186 -195 -206 -220 -200 -204 -193 -206 -196 -196 -185 -205 -182 -194 -182 -194 -182 -206 -195 -188 -164 -200 -183 -195 -157 -145 -169 -167 -149 -196 -205 -227 -157 -242 -139 -269 -265 -12 652 875 -143 -427 -215 -292 -238 -264 -242 -259 -248 -260 -248 -241 -240 -252 -254 -253 -266 -244 -202 -280 -243 -277 -273 -280 -267 -267 -240 -227 -192 -177 -167 -171 -171 -181 -168 -175 -162 -178 -162 -171 -172 -170 -169 -194 -168 -184 -176 -181 -169 -183 -171 -171 -183 -192 -168 -191 -166 -182 -170 -187 -173 -184 -184 -189 -192 -195 -189 -194 -184 -197 -176 -195 -181 -197 -171 -184 -174 -185 -171 -187 -186 -172 -174 -185 -185 -165 -142 -168 -166 -182 -196 -195 -205 -157 -218 -130 -229 -255 83 699 698 -189 -359 -233 -245 -219 -229 -220 -227 -226 -213 -224 -223 -230 -218 -217 -206 -217 -212 -247 -242 -259 -254 -276 -250 -264 -249 -239 -200 -177 -148 -156 -148 -159 -149 -173 -162 -165 -151 -176 -166 -175 -142 -169 -169 -179 -178 -187 -174 -186 -176 -187 -175 -191 -167 -190 -187 -213 -160 -192 -130 -185 -228 -175 -186 -187 -187 -178 -180 -180 -156 -180 -169 -183 -173 -183 -160 -165 -156 -181 -159 -169 -156 -160 -125 -122 -169 -158 -146 -187 -184 -173 -152 -171 -145 -236 -160 281 856 438 -138 -235 -227 -209 -247 -224 -223 -212 -212 -216 -193 -207 -209 -223 -191 -202 -198 -218 -229 -239 -227 -266 -263 -264 -227 -240 -181 -159 -119 -106 -83 -98 -111 -114 -86 -110 -72 -107 -70 -106 -86 -103 -80 -115 -91 -99 -85 -95 -85 -106 -78 -96 -74 -99 -78 -79 -77 -87 -58 -82 -71 -82 -56 -68 -58 -69 -54 -28 -18 -48 -15 -49 -88 -86 -58 -62 -56 -30 -85 -86 405 1058 576 -93 -142 -136 -79 -158 -101 -125 -105 -116 -101 -104 -91 -80 -106 -116 -78 -113 -79 -130 -115 -138 -138 -149 -127 -127 -90 -91 -51 -25 28 5 38 9 22 -1 22 11 22 11 10 -8 7 1 12 1 1 -13 6 -4 9 10 20 5 15 12 17 0 14 2 13 3 9 7 13 -12 13 19 4 5 20 -2 22 -16 -13 -3 23 22 58 9 24 13 -12 -29 -29 -31 -39 2 -66 -112 317 977 775 -95 -219 -68 -67 -68 -60 -83 -96 -71 -86 -75 -63 -68 -68 -57 -72 -99 -80 -79 -86 -73 -98 -97 -70 -81 -54 -51 -7 3 -7 13 23 12 36 16 18 19 33 19 5 15 36 18 17 17 22 15 23 22 22 9 25 2 2 13 8 10 12 11 0 0 2 4 30 4 19 8 12 23 7 7 22 12 0 0 10 11 -4 -7 -1 0 14 -7 25 13 52 51 25 39 39 2 -12 -27 40 -50 46 -76 -113 266 901 937 -17 -200 -5 -78 -53 -74 -57 -31 -31 -68 -31 -28 -32 -34 -11 -27 -39 -39 -48 -23 80 70 58 43 31 9 -20 15 36 35 56 42 42 17 21 11 -28 5 16 -17 2 -20 2 -12 -46 -34 -47 -62 -55 -40 -23 -48 -37 -37 -41 -41 -30 -38 -52 -51 -39 -68 -55 -78 -52 -52 -60 -60 -55 -66 -66 -87 -58 -58 -88 -79 -65 -47 -25 -41 -62 -61 -84 -134 -80 -45 -84 -22 -116 -183 -51 537 1142 355 -175 -173 -208 -112 -177 -128 -140 -123 -134 -108 -154 -121 -97 -126 -121 -139 -152 -138 -138 -153 -163 -185 -182 -171 -147 -124 -105 -49 -21 -23 3 3 30 3 14 14 14 26 23 8 -25 13 25 5 15 5 17 0 23 10 25 15 13 13 -21 17 22 10 22 7 23 34 32 33 34 22 37 27 49 49 81 103 59 92 80 29 42 38 88 -23 86 2 -29 305 970 1119 101 -145 41 -31 26 -5 24 0 -20 -7 18 15 29 41 42 53 54 31 48 48 37 21 24 39 64 41 34 77 123 133 144 134 121 132 123 134 132 132 133 130 140 103 99 120 131 130 128 118 108 95 108 120 129 118 117 117 115 112 109 83 112 116 80 106 102 114 142 102 114 113 109 109 97 88 102 130 112 112 96 107 118 102 123 130 106 128 105 77 76 65 111 58 147 14 0 284 973 1138 89 -111 59 13 37 -8 9 24 34 44 32 32 35 50 51 38 45 30 31 18 -12 19 32 32 15 33 56 77 90 127 137 126 138 116 117 117 96 117 107 118 141 131 121 115 125 101 78 93 89 107 94 70 74 93 89 91 101 101 105 131 158 169 182 193 200 206 251 299 318 386 422 502 542 681 808 933 1009 1109 1212 1268 1360 1349 1481 1446 1581 1536 1601 1574 1576 1558 1557 1547 1540 1550 1582 1561 1524 1575 2081 1586 692 795 435 501 248 274 187 174 197 204 277 319 440 515 565 619 607 648 657 687 673 687 699 719 728 762 772 808 820 849 850 838 847 823 812 828 806 829 795 785 772 786 762 743 742 742 702 703 685 654 653 650 639 618 595 605 591 588 562 551 513 523 500 497 489 478 467 467 442 442 431 418 389 376 380 372 361 377 348 336 281 292 302 269 295 221 153 414 910 1100 541 131 90 111 93 70 51 52 30 43 27 29 14 -5 -5 -16 -27 -41 -66 -66 -92 -113 -149 -132 -147 -132 -119 -102 -79 -66 -54 -33 -71 -69 -92 -92 -100 -88 -123 -123 -132 -145 -141 -164 -201 -149 -169 -190 -204 -204 -202 -190 -208 -227 -215 -237 -264 -243 -246 -262 -240 -274 -287 -251 -256 -225 -231 -276 -251 -264 -284 -305 -303 -257 -342 -235 -364 -373 -80 617 764 -187 -479 -367 -437 -379 -409 -405 -428 -401 -433 -397 -417 -399 -412 -387 -417 -394 -428 -406 -445 -456 -449 -460 -464 -449 -487 -383 -420 -345 -357 -315 -326 -324 -336 -336 -350 -351 -341 -326 -361 -347 -368 -356 -367 -367 -356 -378 -363 -375 -390 -376 -401 -368 -396 -386 -384 -387 -409 -386 -386 -387 -397 -379 -395 -409 -398 -396 -411 -400 -435 -417 -417 -403 -404 -370 -380 -392 -412 -416 -469 -470 -455 -437 -446 -433 -541 -477 48 702 -4 -575 -532 -560 -478 -551 -504 -517 -540 -516 -533 -506 -531 -542 -515 -546 -506 -555 -554 -488 -560 -520 -560 -523 -536 -504 -515 -510 -475 -460 -443 -440 -457 -422 -436 -436 -441 -417 -443 -421 -443 -418 -429 -419 -433 -424 -420 -408 -422 -433 -442 -441 -439 -417 -422 -411 -411 -415 -433 -410 -414 -415 -434 -414 -409 -425 -420 -411 -421 -395 -405 -395 -392 -404 -404 -390 -410 -386 -392 -407 -408 -366 -368 -375 -396 -379 -448 -426 -437 -387 -441 -353 -471 -480 -82 587 314 -484 -596 -467 -504 -509 -524 -488 -532 -509 -530 -532 -545 -520 -546 -545 -556 -533 -556 -540 -569 -556 -582 -569 -591 -566 -567 -531 -528 -489 -490 -486 -491 -469 -496 -475 -489 -479 -477 -471 -489 -478 -477 -455 -485 -439 -462 -468 -478 -478 -471 -463 -473 -462 -450 -438 -458 -448 -451 -429 -441 -452 -451 -436 -436 -426 -422 -421 -442 -428 -434 -433 -442 -418 -418 -418 -409 -409 -399 -402 -399 -367 -379 -346 -388 -360 -385 -429 -428 -379 -421 -342 -438 -481 -346 268 817 -77 -562 -447 -499 -394 -470 -409 -453 -428 -429 -405 -421 -438 -427 -440 -432 -406 -435 -435 -435 -409 -455 -465 -455 -428 -436 -412 -388 -336 -352 -318 -303 -304 -304 -289 -302 -297 -305 -288 -307 -306 -303 -299 -299 -285 -299 -296 -298 -284 -295 -298 -293 -294 -279 -280 -288 -290 -285 -262 -286 -263 -260 -253 -254 -254 -260 -279 -253 -259 -251 -240 -232 -211 -210 -184 -217 -174 -210 -229 -242 -198 -198 -195 -189 -244 -248 249 899 405 -282 -295 -280 -212 -268 -237 -262 -260 -241 -230 -242 -207 -228 -233 -220 -207 -230 -208 -234 -235 -233 -235 -245 -216 -243 -205 -208 -173 -172 -116 -114 -103 -107 -110 -122 -98 -111 -103 -128 -104 -117 -103 -124 -105 -125 -110 -122 -108 -139 -124 -135 -120 -140 -140 -155 -117 -144 -119 -123 -112 -134 -124 -139 -117 -133 -121 -132 -129 -138 -126 -133 -126 -120 -112 -115 -94 -126 -120 -130 -107 -95 -80 -124 -105 -120 -155 -154 -124 -146 -106 -150 -199 -156 412 1017 306 -278 -200 -197 -125 -217 -148 -203 -169 -166 -170 -166 -166 -151 -115 -153 -151 -157 -177 -163 -148 -184 -167 -182 -153 -153 -129 -107 -95 -77 -56 -47 -51 -63 -42 -60 -34 
#avR[uV]
4535 3920 2960 2160 2504 2382 1822 1420 924 495 25 29 8 9 -2 -22 -9 -18 -25 -26 -41 -68 -79 -103 -147 -205 -246 -274 -305 -326 -309 -270 -208 -152 -98 -27 8 21 31 33 25 26 29 35 33 22 20 22 1 10 23 16 32 38 45 33 19 22 33 38 37 25 24 54 51 36 30 24 31 36 21 36 6 13 36 20 -28 -46 -28 -54 -82 -83 -75 -31 6 2 21 0 44 -29 -510 -881 -482 147 78 55 84 44 63 45 54 28 28 49 29 8 -3 -17 -28 -50 -69 -88 -144 -173 -222 -279 -301 -317 -320 -303 -230 -175 -118 -68 -42 14 14 -9 13 18 -19 -3 8 0 0 -3 3 -2 -7 13 11 -10 -5 20 35 5 5 11 28 6 4 35 20 14 30 19 3 18 19 10 15 0 21 14 14 23 5 -5 1 -4 -13 -8 -27 -50 -36 -65 -108 -80 -50 -27 -6 37 -46 53 -32 -349 -823 -818 30 117 20 108 68 89 74 42 47 61 35 45 43 19 17 11 -15 -27 -44 -102 -149 -181 -221 -267 -287 -298 -272 -245 -187 -136 -70 -9 12 23 27 23 37 33 11 6 33 0 5 14 7 -9 27 26 -5 17 18 24 33 20 36 24 39 41 16 8 35 31 29 45 19 27 33 33 22 26 35 14 42 19 26 28 13 21 21 24 8 15 19 -37 -47 -40 -50 -85 -79 -43 -16 7 39 -5 39 -22 -232 -762 -899 -37 141 19 104 51 85 53 73 46 43 35 35 28 -3 -14 -15 -34 -43 -56 -92 -164 -204 -246 -289 -302 -330 -315 -279 -223 -160 -97 -49 -30 -15 -16 -9 -1 -18 -12 -20 -5 -31 -51 -35 -34 -38 -30 -46 -34 -26 -22 -9 -19 -13 0 -17 -11 10 -11 -17 6 -19 -9 -13 -19 -14 -36 -25 -33 -14 -9 -33 -27 -33 -54 -61 -90 -98 -107 -144 -148 -147 -74 -61 -67 -53 -69 -48 -253 -714 -844 -227 52 -53 -46 -35 -31 -30 -47 -39 -44 -72 -56 -73 -98 -89 -115 -130 -140 -155 -200 -247 -269 -329 -381 -392 -400 -415 -389 -308 -258 -191 -161 -119 -116 -106 -77 -84 -97 -103 -120 -106 -119 -115 -146 -124 -119 -129 -125 -116 -127 -121 -144 -131 -111 -122 -127 -111 -117 -119 -121 -127 -111 -100 -108 -116 -104 -98 -115 -111 -116 -117 -111 -98 -86 -87 -113 -98 -130 -163 -153 -163 -180 -194 -153 -110 -93 -49 -106 -37 -118 -367 -866 -902 -62 44 -64 6 -36 -1 -41 -21 -36 -42 -39 -51 -66 -70 -92 -95 -105 -143 -176 -193 -268 -284 -332 -377 -408 -419 -407 -375 -296 -225 -172 -131 -92 -86 -69 -62 -70 -52 -77 -82 -82 -68 -81 -90 -87 -85 -90 -83 -77 -83 -77 -61 -67 -73 -59 -71 -69 -77 -82 -57 -63 -70 -80 -73 -75 -68 -66 -69 -77 -85 -62 -82 -76 -82 -69 -87 -91 -75 -78 -88 -97 -79 -80 -86 -87 -117 -123 -134 -157 -162 -159 -125 -79 -78 -58 -96 -38 -108 -458 -959 -730 -12 4 -75 0 -23 -8 -18 -10 -23 -37 -42 -56 -82 -75 -76 -106 -115 -133 -165 -201 -250 -307 -343 -385 -405 -417 -411 -370 -311 -242 -178 -135 -96 -91 -77 -76 -67 -73 -72 -68 -82 -90 -89 -77 -72 -84 -89 -70 -79 -71 -76 -70 -55 -69 -57 -54 -55 -58 -49 -49 -64 -71 -55 -61 -59 -70 -68 -56 -57 -55 -66 -86 -65 -74 -82 -70 -84 -64 -79 -77 -68 -94 -82 -121 -128 -125 -150 -145 -143 -126 -83 -67 -38 -85 -30 -198 -568 -804 -529 10 -4 -36 10 -19 -6 -3 -8 -34 -26 -25 -33 -53 -48 -54 -83 -91 -137 -161 -166 -233 -256 -306 -331 -356 -362 -337 -291 -248 -177 -117 -85 -50 -55 -34 -44 -51 -33 -55 -49 -39 -48 -45 -52 -51 -43 -56 -50 -33 -29 -40 -37 -40 -43 -32 -34 -47 -9 -24 -36 -38 -33 -30 -36 -43 -37 -50 -71 -100 -92 -126 -131 -102 -89 -61 -40 -66 -43 -10 -124 -591 -996 -486 60 -1 -15 16 6 4 -7 -5 -20 -25 -27 -31 -49 -52 -56 -61 -80 -126 -134 -167 -213 -265 -303 -327 -349 -341 -319 -276 -212 -152 -102 -61 -36 -32 -5 1 -24 -19 -24 -37 -33 -36 -51 -45 -50 -50 -45 -35 -29 -38 -26 -32 -39 -35 -24 -23 -18 -23 -30 -13 -18 -27 -38 -41 -30 -17 -24 -20 -23 -15 -27 -25 -38 -22 -19 -41 -55 -78 -76 -93 -109 -99 -71 -36 1 10 -27 15 -67 -407 -873 -679 54 83 33 70 48 69 36 45 36 29 22 13 10 9 -7 -25 -35 -53 -76 -112 -151 -205 -258 -278 -306 -318 -288 -240 -186 -111 -65 -3 16 32 48 39 39 59 52 45 49 48 40 23 48 50 36 41 50 49 43 63 51 52 59 70 55 55 54 48 74 65 62 64 63 50 54 47 63 55 56 61 67 46 45 64 52 60 68 67 67 62 51 57 53 23 0 9 -8 -23 -9 5 46 64 91 54 95 25 -263 -788 -689 111 155 82 157 122 126 106 122 111 91 85 87 71 72 60 41 12 1 -27 -24 -16 -59 -118 -186 -207 -229 -232 -192 -130 -74 -16 19 53 68 81 75 83 83 78 73 59 51 62 55 60 55 64 57 60 58 66 63 71 71 58 83 72 57 65 76 69 68 63 79 78 66 52 77 79 70 58 58 58 70 69 71 71 44 31 13 15 -3 -25 -3 63 104 85 110 116 93 -38 -540 -873 -152 248 113 143 132 151 130 135 106 113 126 102 99 83 80 61 53 33 6 -40 -47 -94 -162 -189 -219 -229 -230 -217 -167 -106 -20 14 38 62 85 79 67 67 83 87 68 55 47 59 60 53 58 64 56 71 64 62 57 67 79 73 66 58 64 58 75 57 62 63 51 52 57 74 52 55 43 6 -6 -4 -26 -38 -31 -10 30 42 60 12 91 12 -286 -805 -773 43 124 48 111 74 91 75 73 61 65 44 43 51 23 12 -3 -13 -38 -57 -80 -132 -168 -249 -280 -292 -292 -275 -255 -176 -110 -51 -13 -4 28 23 29 23 25 25 24 16 19 -9 -11 4 3 2 -2 3 -14 2 7 1 18 6 -3 16 -1 -1 17 18 10 4 7 4 0 17 16 9 8 2 -7 12 12 -5 8 3 3 6 0 16 -15 -31 -39 -49 -75 -89 -80 -57 -24 -20 18 -5 41 -55 -349 -845 -842 18 91 6 84 27 75 43 51 47 29 34 11 12 -2 9 -26 -37 -44 -95 -103 -132 -210 -242 -292 -312 -321 -312 -265 -208 -150 -85 -25 -6 17 19 18 34 21 29 25 26 20 3 8 13 14 12 7 16 15 21 19 8 17 25 26 31 42 34 52 49 65 64 95 110 85 117 146 153 186 215 240 268 337 401 474 500 552 606 633 668 661 744 722 743 695 748 690 702 730 754 771 779 801 810 840 667 14 -452 102 553 484 301 333 240 203 185 171 185 186 188 221 258 306 301 316 342 308 290 286 233 205 170 131 121 116 132 176 247 303 372 400 453 452 445 463 457 458 445 452 436 416 428 425 423 412 395 395 396 395 395 380 387 384 387 355 370 369 359 343 324 318 323 315 322 306 300 299 287 275 270 252 263 267 226 197 192 187 135 131 171 218 222 216 194 212 191 -4 -521 -763 48 333 175 233 183 226 182 197 175 136 141 131 129 108 111 69 50 45 20 -16 -58 -98 -164 -194 -215 -230 -245 -222 -160 -118 -75 -23 8 40 39 28 22 41 1 2 14 7 -5 -5 -12 -12 -12 -22 -20 -20 -22 -12 -24 -18 -14 -37 -33 -23 -24 -29 -42 -48 -61 -60 -56 -100 -123 -101 -147 -159 -169 -159 -102 -104 -69 -122 -50 -131 -436 -885 -894 -96 -7 -115 -49 -90 -44 -96 -84 -94 -101 -117 -143 -121 -147 -168 -157 -183 -211 -238 -271 -323 -356 -407 -438 -443 -470 -456 -411 -362 -287 -254 -220 -192 -170 -153 -174 -174 -169 -176 -194 -198 -196 -190 -219 -208 -203 -213 -193 -187 -198 -193 -193 -188 -211 -189 -202 -190 -190 -179 -182 -195 -189 -170 -188 -193 -197 -186 -185 -192 -189 -190 -194 -186 -198 -241 -246 -251 -285 -252 -253 -231 -185 -187 -160 -220 -156 -348 -736 -843 -610 -132 -121 -175 -117 -143 -118 -123 -123 -147 -146 -145 -158 -162 -181 -208 -188 -225 -245 -259 -295 -364 -411 -453 -474 -493 -499 -483 -431 -358 -296 -250 -216 -188 -182 -172 -166 -169 -169 -173 -184 -184 -189 -196 -192 -197 -195 -197 -192 -191 -189 -190 -189 -191 -180 -187 -186 -187 -197 -201 -193 -192 -201 -184 -182 -202 -199 -180 -198 -209 -188 -193 -192 -198 -202 -195 -190 -191 -206 -201 -201 -244 -239 -242 -270 -263 -266 -243 -206 -189 -136 -195 -145 -293 -610 -892 -804 -145 -74 -158 -60 -82 -62 -94 -88 -87 -84 -96 -103 -99 -110 -121 -127 -127 -167 -180 -215 -259 -295 -351 -386 -410 -415 -409 -347 -287 -239 -154 -107 -79 -77 -80 -39 -62 -61 -55 -54 -69 -59 -59 -74 -62 -61 -64 -53 -64 -48 -56 -50 -55 -49 -56 -55 -63 -53 -53 -48 -52 -64 -54 -54 -65 -65 -51 -61 -51 -55 -50 -53 -62 -52 -71 -66 -64 -47 -71 -69 -81 -120 -115 -122 -133 -133 -121 -79 -66 -35 -57 -24 -36 -185 -709 -1015 -255 108 -5 43 -7 27 7 26 8 -4 0 -18 -20 -15 -55 -48 -58 -73 -111 -122 -154 -212 -259 -292 -324 -337 -337 -327 -257 -205 -156 -77 -54 -30 -21 -2 -13 -6 2 -20 -24 -28 -25 -15 -31 -24 -29 -20 -5 -21 -23 -9 -22 -6 -8 -14 1 -11 -12 -22 -13 -11 -34 -17 -29 -32 -22 -25 -28 -38 -49 -33 -48 -94 -103 -103 -132 -137 -135 -99 -41 -27 -39 -46 -31 -126 -535 -986 -536 72 38 11 26 18 21 8 -6 3 8 -4 -22 -24 -27 -32 -68 -89 -99 -108 -150 -198 -249 -301 -336 -351 -356 -336 -280 -235 -162 -98 -69 -38 -29 -11 -14 -21 -29 -14 -16 -22 -40 -26 -38 -32 -25 -29 -21 -24 -17 -10 -17 -10 2 -3 -14 -4 8 5 0 12 3 16 2 6 -1 -7 13 6 0 6 0 2 -5 2 9 -6 -3 -8 -16 -46 -51 -56 -109 -89 -80 -43 -5 4 11 30 5 -121 -569 -996 -369 131 14 61 57 66 56 51 37 42 16 20 20 5 12 -17 -30 -33 -65 -84 -130 -159 -225 -279 -296 -334 -332 -309 -254 -192 -142 -61 -31 -4 17 7 10 
#avL[uV]
25455 22960 20206 17451 15185 12847 10259 7709 5162 2681 80 104 103 104 107 114 106 117 130 130 127 146 148 176 203 234 250 274 280 291 252 225 164 126 87 51 14 26 23 21 17 34 12 16 38 26 58 47 37 48 26 55 26 31 20 26 32 33 28 34 20 44 50 27 9 35 71 28 22 40 37 24 31 40 39 14 30 28 0 71 55 54 83 44 16 10 8 27 37 123 -15 -347 -204 12 83 46 8 27 9 16 0 20 5 2 33 24 18 47 31 43 61 73 98 121 154 183 196 212 181 145 95 43 -14 -39 -45 -84 -80 -68 -72 -83 -70 -60 -55 -62 -64 -53 -63 -61 -67 -56 -29 -16 -65 -60 -52 -55 -55 -50 -70 -46 -39 -66 -59 -47 -57 -52 -35 -50 -52 -35 -47 -41 -48 -52 -52 -56 -42 -37 -34 -39 -35 -42 -38 -28 1 -2 11 15 18 29 -14 -13 -21 17 65 19 -244 -385 -46 99 15 24 11 7 16 23 14 7 21 16 16 27 27 38 62 65 87 108 140 172 183 206 207 212 178 145 124 90 35 -6 -9 -14 -22 -27 -9 -4 6 -3 -19 5 1 -3 -6 1 -14 -14 11 -19 0 -11 -13 2 -13 -15 -22 -29 1 -7 -3 -26 -18 -23 10 -4 -16 -17 -10 -12 -12 -9 -11 2 -15 -16 -8 -4 6 -5 3 -1 -4 3 2 7 12 48 62 57 43 -5 27 -10 54 116 70 -160 -385 -51 136 38 81 49 82 63 49 62 64 79 78 72 97 103 114 134 129 137 174 219 266 277 291 297 312 286 249 193 156 120 96 96 86 102 105 94 112 100 114 90 110 130 122 123 134 140 138 151 155 158 150 150 154 147 165 153 148 157 169 156 169 165 170 164 171 183 177 174 173 180 185 174 186 187 200 188 202 222 232 243 275 223 199 224 184 234 272 253 58 -265 -18 222 259 277 228 254 244 256 248 254 277 252 262 265 269 284 294 299 317 335 380 390 424 448 452 447 446 409 332 282 239 225 195 205 204 177 180 188 184 202 194 196 194 226 211 217 220 218 216 216 205 233 218 196 207 218 221 209 212 206 218 202 197 193 212 189 195 194 201 195 213 201 190 166 194 194 195 183 190 203 207 202 244 231 225 164 206 158 221 258 192 -56 -205 139 298 194 216 197 199 202 205 204 216 205 206 213 224 236 238 252 255 240 307 316 350 371 399 405 410 383 358 292 245 211 193 174 179 161 162 157 160 160 170 170 161 168 190 170 180 177 177 165 179 167 159 171 181 156 179 159 175 168 169 161 173 178 178 182 180 175 180 176 190 164 187 174 189 163 181 176 176 167 184 188 169 171 182 182 182 168 193 203 218 227 209 193 157 192 145 191 245 166 -44 -158 147 267 212 184 176 176 174 175 181 178 189 195 213 201 201 207 221 225 268 282 319 344 378 380 401 395 385 335 288 232 206 179 168 157 168 159 157 150 168 159 172 152 171 165 170 175 185 165 179 168 178 167 171 160 172 167 188 149 168 122 170 207 159 170 170 175 167 164 164 145 168 170 170 166 179 156 166 149 175 158 161 164 161 154 155 189 194 182 211 201 171 148 147 151 192 219 73 -239 -64 99 178 189 151 195 171 169 163 176 175 158 172 183 192 171 193 195 232 253 262 287 328 350 364 349 361 305 265 213 168 121 116 108 113 82 104 80 97 81 104 84 101 82 112 94 96 92 96 80 94 78 91 76 96 75 76 81 70 56 80 72 78 57 69 65 70 66 57 63 82 74 103 117 109 74 67 75 44 68 127 -8 -295 -189 39 107 110 51 115 74 97 82 97 89 92 84 84 105 115 89 125 122 165 169 211 237 263 259 270 238 228 177 125 55 47 1 10 0 3 -17 3 -7 3 10 22 12 24 13 23 23 32 12 18 12 5 0 15 5 2 -1 8 0 13 -3 6 6 13 10 24 -1 -2 6 7 -7 15 -4 31 21 12 3 10 -4 31 28 44 58 58 40 22 24 11 42 117 -34 -295 -242 44 122 34 15 26 10 44 49 35 50 45 40 45 46 46 66 92 87 97 121 131 176 202 192 214 200 183 126 90 61 22 -15 -17 -43 -36 -33 -34 -55 -40 -26 -36 -51 -33 -24 -37 -42 -29 -38 -41 -41 -28 -50 -27 -27 -40 -41 -35 -36 -36 -23 -36 -34 -34 -55 -35 -39 -33 -33 -49 -33 -33 -47 -43 -23 -22 -40 -34 -27 -29 -32 -33 -42 -20 -47 -37 -51 -39 -23 -25 -17 3 7 -2 -62 -8 -61 9 72 -68 -281 -357 -42 72 -37 -20 -20 -7 -10 -37 -31 5 -19 -21 -11 -10 -21 0 23 28 50 29 -52 -22 15 60 79 107 131 84 37 10 -34 -41 -58 -47 -56 -46 -20 -46 -51 -23 -31 -10 -33 -18 4 -1 2 17 11 1 -15 4 -7 -7 1 -10 -13 0 6 0 -5 17 10 19 0 6 18 6 1 14 20 36 14 8 31 23 13 13 3 24 39 48 76 102 28 -18 20 -37 29 91 57 -132 -420 -189 7 73 84 18 57 31 37 39 44 18 64 41 31 54 59 78 97 100 124 138 169 220 231 238 225 208 187 120 69 27 -10 -22 -53 -45 -50 -44 -44 -62 -61 -40 -8 -34 -48 -34 -38 -33 -45 -28 -53 -40 -50 -40 -43 -49 -20 -46 -46 -40 -46 -43 -46 -57 -56 -51 -51 -45 -65 -46 -65 -59 -64 -74 -41 -56 -41 -6 -26 -44 -87 -12 -71 -47 16 -86 -325 -452 -98 46 -55 -31 -57 -41 -56 -37 -14 -27 -35 -33 -48 -42 -38 -38 -33 -4 -7 4 37 68 106 110 98 115 111 69 -4 -45 -82 -93 -88 -113 -104 -115 -111 -112 -112 -109 -113 -87 -69 -84 -101 -100 -97 -87 -83 -64 -82 -94 -98 -97 -91 -86 -94 -83 -81 -70 -93 -92 -62 -83 -79 -85 -115 -84 -90 -89 -83 -78 -79 -72 -74 -101 -86 -86 -75 -80 -97 -69 -76 -77 -55 -58 -34 -17 -28 -37 -73 -53 -107 -31 27 -38 -307 -432 -76 37 -48 -52 -41 -31 -29 -44 -49 -48 -41 -30 -32 -36 -43 -15 -15 0 23 37 75 90 96 121 144 135 113 74 36 -20 -60 -81 -100 -95 -98 -97 -89 -98 -95 -101 -119 -108 -92 -91 -101 -83 -65 -73 -75 -88 -81 -62 -60 -79 -80 -81 -92 -97 -96 -125 -143 -160 -169 -192 -205 -197 -247 -297 -315 -383 -425 -497 -541 -679 -807 -937 -1006 -1108 -1212 -1268 -1354 -1342 -1483 -1446 -1557 -1500 -1575 -1526 -1533 -1534 -1545 -1546 -1545 -1563 -1592 -1591 -1477 -1188 -1334 -1240 -796 -839 -477 -542 -306 -307 -233 -216 -240 -246 -302 -349 -459 -539 -574 -623 -626 -640 -638 -658 -621 -618 -609 -605 -606 -630 -645 -694 -738 -788 -824 -828 -862 -843 -832 -853 -834 -851 -819 -815 -797 -797 -786 -770 -768 -763 -724 -725 -712 -688 -687 -678 -673 -656 -640 -632 -628 -626 -601 -585 -547 -552 -536 -530 -528 -512 -501 -500 -475 -469 -458 -440 -424 -415 -398 -378 -367 -376 -329 -318 -296 -328 -337 -310 -318 -272 -210 -308 -421 -443 -430 -265 -155 -200 -162 -165 -129 -138 -110 -100 -91 -87 -75 -49 -51 -22 -4 8 39 58 98 134 194 196 218 215 212 188 140 108 78 36 49 32 49 55 64 45 91 91 91 105 108 126 157 118 133 154 163 163 163 149 169 179 168 196 215 193 197 211 201 230 246 218 220 219 235 257 262 277 297 309 278 245 291 237 298 345 278 -19 -126 188 363 333 352 329 329 352 363 348 375 356 384 360 382 374 391 388 426 423 470 503 515 548 567 558 600 516 521 440 411 363 354 339 337 329 349 350 340 333 368 360 374 362 385 380 369 390 369 375 391 379 398 370 402 384 389 385 402 379 381 388 393 369 390 404 397 390 401 396 421 408 410 395 402 398 408 420 452 438 478 468 434 421 415 435 484 532 332 -105 308 497 459 508 417 485 437 450 467 461 473 452 478 488 477 514 474 529 538 495 568 572 626 619 639 625 636 624 571 525 480 456 451 410 418 413 414 397 417 402 424 406 417 413 421 417 413 405 413 420 426 426 424 408 407 402 401 405 423 408 407 407 426 403 398 419 415 398 415 401 398 393 391 402 404 390 403 386 398 406 406 397 396 403 432 416 469 441 431 385 399 363 426 507 367 5 166 436 484 429 409 423 424 413 444 425 439 447 460 440 464 469 481 463 501 495 534 547 584 602 637 630 633 603 570 511 487 442 422 392 411 396 387 390 388 381 394 393 388 371 401 360 377 383 385 391 377 375 380 375 362 357 371 367 365 348 355 365 371 354 354 352 349 341 362 347 353 350 358 345 339 349 340 339 323 337 334 316 344 317 352 337 355 383 361 317 333 285 340 379 352 153 -105 185 367 338 352 299 339 303 326 316 324 304 324 339 328 358 348 334 363 382 387 384 447 478 487 483 496 478 455 381 367 317 266 256 243 227 228 230 232 215 240 242 241 237 232 230 237 237 233 215 232 235 224 232 212 214 223 217 219 203 226 204 201 207 199 205 211 221 202 208 207 205 191 182 205 190 214 197 226 240 231 169 162 166 165 199 249 80 -181 -35 175 202 204 145 191 167 192 198 179 168 184 166 183 188 181 189 217 206 229 251 274 301 335 330 358 332 324 270 247 168 135 111 99 97 97 81 93 92 103 86 99 97 106 98 110 95 106 91 116 102 106 99 110 103 118 95 110 85 90 84 94 91 96 86 96 92 103 90 100 95 96 94 89 87 85 66 97 91 101 88 95 86 121 133 134 157 137 95 107 74 97 146 178 -24 -264 -45 142 143 117 65 129 82 126 108 103 119 114 114 110 80 124 128 134 166 164 176 218 237 277 263 282 263 235 198 154 113 66 54 50 22 41 20 
#avF[uV]
-29991 -26881 -23166 -19612 -17690 -15229 -12081 -9130 -6087 -3177 -105 -133 -112 -114 -105 -91 -96 -98 -104 -104 -86 -77 -68 -72 -55 -28 -4 0 24 35 56 45 43 26 11 -24 -22 -48 -55 -54 -42 -60 -41 -51 -72 -49 -79 -70 -39 -59 -49 -72 -58 -69 -65 -59 -52 -55 -61 -72 -58 -69 -75 -81 -61 -71 -101 -52 -54 -77 -59 -60 -38 -54 -75 -35 -2 18 28 -16 26 28 -7 -12 -22 -12 -30 -28 -82 -94 525 1229 686 -159 -162 -102 -93 -71 -72 -62 -54 -49 -33 -52 -63 -32 -14 -29 -3 6 8 15 46 52 67 96 105 105 139 158 135 132 132 107 87 69 66 78 59 64 89 64 46 62 63 57 60 63 74 42 18 27 70 40 17 49 49 39 41 39 35 30 38 32 27 32 31 31 33 24 32 40 26 37 37 33 36 42 33 44 49 50 66 79 35 67 97 65 31 -2 21 -24 68 -71 -32 329 1067 1204 15 -216 -35 -132 -80 -97 -91 -66 -62 -69 -57 -62 -59 -46 -45 -50 -46 -38 -43 -5 8 9 37 60 80 85 94 100 62 46 35 15 -2 -8 -5 4 -28 -28 -18 -3 -14 -6 -6 -11 -1 7 -12 -11 -5 2 -17 -12 -20 -22 -23 -9 -16 -12 -17 0 -32 -4 -11 -21 -30 -22 -16 -16 -12 -14 -23 -5 -30 -21 -11 -12 -4 -17 -27 -19 -11 -14 -14 34 44 32 38 37 17 -14 -27 -2 -67 16 -94 -94 162 923 1285 88 -277 -58 -185 -101 -167 -117 -122 -109 -107 -115 -114 -100 -93 -88 -99 -100 -86 -80 -82 -54 -62 -31 -1 5 17 28 29 29 3 -23 -47 -65 -70 -86 -96 -92 -93 -87 -94 -84 -79 -79 -87 -88 -96 -110 -92 -116 -128 -136 -140 -131 -141 -146 -147 -142 -158 -146 -152 -162 -150 -156 -156 -145 -157 -146 -152 -140 -159 -171 -152 -147 -153 -132 -139 -97 -104 -115 -87 -94 -128 -148 -137 -157 -131 -164 -224 0 656 1110 246 -274 -205 -231 -192 -222 -214 -209 -208 -209 -205 -195 -188 -166 -180 -169 -164 -158 -161 -134 -132 -121 -94 -67 -60 -47 -31 -20 -24 -23 -48 -63 -75 -88 -98 -99 -96 -91 -81 -82 -87 -77 -79 -79 -87 -97 -90 -93 -99 -89 -84 -89 -87 -84 -85 -91 -110 -92 -93 -84 -91 -91 -96 -84 -96 -84 -96 -78 -89 -78 -95 -90 -92 -80 -106 -81 -96 -52 -27 -50 -43 -21 -50 -77 -115 -71 -156 -51 -183 -140 174 922 1107 -76 -342 -129 -222 -160 -197 -160 -184 -167 -173 -166 -154 -146 -154 -144 -142 -146 -111 -63 -113 -48 -65 -39 -21 3 9 23 17 4 -20 -39 -62 -82 -93 -91 -100 -86 -108 -82 -87 -88 -93 -86 -100 -82 -95 -86 -94 -88 -95 -90 -97 -103 -107 -96 -108 -90 -98 -86 -111 -98 -103 -97 -105 -106 -112 -108 -110 -99 -105 -101 -104 -98 -106 -93 -94 -85 -101 -89 -96 -91 -89 -90 -96 -95 -65 -45 -58 -46 -55 -67 -84 -114 -79 -134 -49 -153 -137 291 1004 889 -135 -272 -137 -184 -153 -167 -155 -165 -158 -141 -146 -139 -131 -125 -125 -101 -105 -92 -103 -80 -69 -37 -35 4 4 21 26 34 22 9 -27 -43 -71 -66 -90 -83 -90 -77 -96 -90 -90 -61 -82 -88 -98 -91 -96 -95 -99 -96 -102 -96 -116 -90 -114 -113 -132 -91 -119 -73 -106 -135 -104 -109 -110 -105 -99 -107 -107 -89 -101 -83 -104 -92 -96 -85 -82 -85 -96 -80 -92 -70 -79 -33 -27 -64 -43 -36 -68 -74 -88 -80 -108 -66 -162 -21 495 1044 593 -109 -174 -152 -162 -176 -165 -165 -155 -141 -148 -132 -138 -130 -143 -116 -110 -103 -95 -91 -96 -54 -71 -44 -32 7 1 32 26 35 8 -3 -31 -58 -57 -47 -60 -28 -63 -25 -55 -45 -53 -37 -60 -43 -52 -35 -46 -47 -65 -38 -53 -35 -53 -42 -42 -33 -60 -32 -43 -34 -45 -27 -33 -22 -33 -15 14 36 9 51 28 -14 -20 -13 -26 -8 -1 -58 -2 599 1292 675 -100 -106 -94 -67 -122 -78 -90 -76 -77 -63 -65 -53 -35 -53 -59 -27 -45 3 -31 -2 2 28 40 67 78 102 91 99 87 97 55 59 25 32 1 16 21 26 20 26 10 24 27 31 26 26 12 22 11 26 21 31 23 29 21 24 9 23 16 17 11 20 25 30 5 18 26 13 15 23 11 29 7 0 7 38 44 82 45 64 64 40 13 -4 -24 -34 15 -57 -50 441 1169 921 -99 -206 -68 -85 -75 -80 -81 -95 -72 -80 -67 -54 -56 -56 -39 -41 -57 -33 -21 -8 20 29 56 86 92 118 105 114 96 49 42 19 1 10 -12 -5 -5 -4 -11 -18 -12 2 -6 1 -11 -8 -6 -2 -8 -7 -14 -12 -24 -24 -19 -29 -19 -18 -18 -24 -37 -31 -28 -9 -28 -10 -21 -13 -14 -22 -22 -13 -24 -23 -22 -23 -18 -33 -39 -34 -34 -20 -31 -9 -16 27 38 14 33 41 6 -12 -43 -2 -83 7 -104 -97 331 1070 1047 -68 -227 -45 -137 -101 -119 -96 -85 -79 -97 -66 -65 -59 -62 -38 -41 -35 -30 -23 -5 68 82 103 126 127 121 100 107 92 63 50 21 4 -20 -24 -29 -62 -37 -26 -49 -28 -40 -29 -37 -65 -53 -67 -75 -71 -59 -50 -68 -63 -63 -60 -73 -59 -57 -71 -76 -64 -85 -73 -98 -78 -72 -71 -84 -81 -84 -78 -94 -72 -78 -101 -95 -84 -58 -35 -37 -54 -44 -50 -99 -92 -86 -105 -72 -145 -184 -19 673 1293 342 -256 -186 -227 -151 -208 -161 -173 -145 -157 -144 -167 -140 -115 -135 -121 -131 -130 -107 -83 -91 -75 -57 -41 -18 4 22 29 46 37 -7 -4 -16 -8 -39 -29 -23 -22 -21 -26 -28 -46 -13 -10 -26 -14 -25 -18 -28 -17 -24 -11 -17 -23 -29 -53 -20 -12 -24 -12 -32 -11 -5 -7 0 0 -11 -9 -5 9 15 57 81 46 82 79 37 37 13 44 -48 58 -44 -28 372 1130 1226 54 -171 7 -79 -16 -49 -19 -36 -46 -38 -8 -9 -3 19 25 41 47 43 64 76 94 100 142 169 194 176 163 185 181 155 134 107 93 85 80 86 87 86 87 85 97 68 79 96 96 96 95 90 80 78 80 86 96 79 84 89 78 84 82 53 75 82 58 76 74 86 97 68 81 80 80 85 66 59 79 93 82 82 69 80 80 84 108 117 104 133 123 98 85 61 93 34 113 -9 28 388 1152 1275 57 -129 41 -31 14 -43 -14 -7 2 18 7 18 20 39 34 42 52 45 71 65 56 120 145 170 167 186 198 191 172 170 145 107 107 78 78 78 55 77 65 76 93 88 89 82 87 69 52 66 58 73 60 43 52 61 54 55 60 55 62 72 93 94 104 97 95 112 129 151 161 196 209 256 272 341 405 463 506 555 606 634 686 681 739 724 814 804 826 835 831 803 790 775 765 762 781 750 810 1174 1787 1138 242 354 175 208 65 104 47 45 55 59 114 128 201 233 273 306 284 331 347 372 387 412 439 474 485 514 513 518 491 485 451 428 408 391 386 389 376 392 373 362 361 381 357 344 345 350 328 330 315 293 292 297 285 271 253 276 258 256 242 241 222 233 213 215 205 206 200 201 188 193 188 187 160 148 172 180 174 189 193 186 125 110 115 94 124 59 19 312 943 1207 381 -68 -19 -33 -21 -60 -52 -59 -65 -36 -50 -44 -53 -58 -60 -47 -46 -53 -59 -41 -40 -35 -29 -2 -2 15 33 34 20 9 -2 -13 -57 -72 -88 -83 -86 -86 -93 -93 -106 -113 -103 -120 -144 -106 -121 -131 -143 -143 -140 -136 -144 -161 -154 -159 -181 -170 -172 -182 -159 -181 -185 -158 -164 -118 -111 -156 -114 -118 -128 -149 -176 -140 -222 -115 -247 -214 157 905 1020 -92 -356 -217 -302 -239 -284 -256 -279 -253 -274 -239 -240 -239 -235 -206 -234 -204 -215 -185 -198 -180 -159 -141 -129 -115 -130 -59 -109 -77 -124 -109 -134 -146 -167 -176 -175 -176 -171 -156 -174 -161 -178 -172 -166 -171 -166 -176 -175 -187 -193 -185 -204 -182 -191 -194 -186 -195 -211 -200 -198 -193 -203 -199 -202 -210 -200 -204 -215 -204 -231 -218 -215 -209 -203 -157 -162 -168 -166 -186 -225 -237 -248 -234 -254 -215 -327 -183 404 948 302 -365 -338 -332 -300 -341 -318 -326 -343 -313 -327 -306 -319 -325 -295 -305 -285 -303 -292 -236 -272 -208 -214 -166 -164 -131 -136 -141 -140 -166 -184 -205 -235 -222 -236 -240 -248 -228 -247 -229 -240 -221 -227 -216 -228 -219 -217 -207 -220 -229 -237 -235 -235 -217 -226 -215 -215 -218 -226 -207 -214 -215 -225 -218 -216 -217 -215 -218 -217 -192 -210 -200 -198 -203 -201 -195 -212 -194 -191 -204 -205 -152 -156 -160 -162 -153 -203 -198 -225 -196 -263 -167 -280 -213 243 886 638 -290 -410 -271 -348 -340 -361 -318 -355 -338 -355 -351 -357 -340 -354 -348 -353 -335 -333 -315 -319 -287 -288 -251 -250 -219 -217 -193 -222 -223 -248 -287 -315 -312 -333 -316 -347 -328 -327 -326 -339 -323 -328 -311 -327 -298 -316 -318 -332 -326 -329 -319 -330 -319 -313 -300 -316 -304 -311 -295 -306 -312 -306 -300 -300 -286 -284 -290 -300 -295 -298 -299 -304 -282 -287 -277 -274 -275 -275 -266 -264 -234 -224 -202 -230 -203 -221 -261 -281 -251 -298 -228 -316 -343 -166 555 1120 69 -476 -333 -396 -292 -366 -310 -353 -325 -319 -304 -306 -319 -312 -302 -299 -275 -289 -270 -265 -230 -235 -219 -195 -159 -158 -140 -127 -123 -161 -160 -189 -201 -213 -206 -225 -216 -226 -217 -219 -217 -212 -212 -217 -198 -212 -207 -213 -210 -210 -212 -214 -209 -206 -206 -208 -218 -208 -190 -203 -190 -189 -173 -182 -176 -179 -198 -176 -180 -169 -155 -157 -134 -110 -86 -111 -65 -89 -104 -131 -127 -134 -126 -118 -168 -123 454 1167 572 -247 -241 -216 -172 -210 -188 -200 -192 -182 -177 -179 -144 -159 -161 -149 -121 -127 -106 -121 -101 -76 -52 -33 5 -6 24 11 9 -11 -6 -36 -42 -61 -68 -85 -66 -72 -63 -89 -70 -76 -57 -80 -59 -78 -69 -77 -70 -92 -84 -96 -81 -100 -106 -115 -81 -106 -93 -95 -84 -107 -94 -113 -88 -102 -90 -95 -103 -106 -95 -103 -94 -91 -82 -87 -75 -91 -88 -93 -72 -48 -34 -65 -24 -45 -76 -93 -90 -112 -85 -127 -152 -56 594 1261 414 -274 -157 -178 -123 -196 -139 -178 -146 -146 -135 -134 -134 -116 -92 -106 -98 -101 -100 -80 -46 -58 -12 2 33 52 68 73 55 38 29 -5 -22 -45 -40 -49 -31 
