ADC Sampling rate (Hz):
100
Fragment duration (sec):
20
Number of samples exported by each lead:
1999

#I[uV]
-2089 -1701 -1752 -1289 -1330 -816 -767 -113 -244 -183 -130 -97 -142 -138 -140 -129 -107 -113 -106 -84 -84 -60 -59 -66 -29 15 65 137 204 300 343 382 383 334 310 272 214 173 151 130 129 123 123 134 140 145 147 149 152 140 139 141 114 104 116 90 101 84 95 90 80 90 87 97 84 86 71 74 74 83 87 55 70 58 42 42 29 44 69 73 59 65 64 64 50 2 -25 -28 -7 42 188 340 146 -69 -25 -43 -71 -54 -66 -72 -74 -66 -62 -72 -60 -55 -57 -29 -15 17 64 115 195 267 311 326 310 274 215 161 97 36 2 -27 -41 -31 -31 -32 -8 -14 -22 -13 -14 -15 -14 -35 -52 -53 -65 -76 -75 -87 -89 -110 -110 -94 -108 -120 -110 -104 -114 -116 -118 -106 -104 -114 -124 -127 -127 -129 -139 -137 -130 -134 -144 -145 -159 -152 -137 -111 -118 -100 -103 -81 -75 -105 -153 -179 -177 -176 -82 10 124 71 -215 -215 -220 -272 -254 -289 -253 -252 -265 -264 -264 -239 -249 -216 -218 -215 -168 -126 -38 38 98 163 188 192 165 116 70 27 -22 -62 -86 -101 -102 -98 -81 -72 -87 -75 -58 -77 -79 -70 -63 -85 -85 -101 -100 -72 -92 -91 -91 -102 -110 -117 -118 -113 -113 -113 -115 -106 -102 -99 -99 -108 -94 -83 -78 -82 -80 -78 -80 -73 -84 -73 -52 -39 -50 -27 -18 5 12 -44 -55 -88 -54 -46 74 228 118 32 -104 -81 -65 -89 -67 -86 -73 -59 -66 -54 -54 -28 -7 -1 30 64 110 149 243 331 379 436 459 436 420 386 339 278 240 216 196 190 190 190 199 220 224 221 214 231 227 235 254 242 239 229 214 225 211 218 220 220 219 236 229 227 242 245 236 250 237 257 268 255 250 255 249 260 253 277 276 285 261 283 283 193 205 178 212 220 367 483 274 63 90 126 95 117 108 108 97 130 105 122 145 145 152 175 197 224 248 301 380 440 497 541 541 522 481 443 390 375 318 308 304 291 298 296 306 295 295 317 323 313 309 292 291 280 279 244 255 251 225 232 230 216 222 209 209 187 188 190 167 171 175 159 157 158 162 170 165 177 172 183 168 112 117 82 105 90 214 357 238 64 -25 4 -7 -53 -38 -25 -48 -46 -33 -31 -34 -33 -33 -18 -18 3 37 97 174 222 277 321 295 285 243 193 112 55 3 -38 -79 -83 -100 -96 -98 -88 -76 -75 -75 -84 -70 -78 -80 -91 -81 -84 -94 -112 -116 -111 -119 -118 -118 -117 -109 -113 -115 -126 -126 -115 -122 -124 -112 -136 -148 -133 -144 -135 -139 -139 -116 -127 -123 -122 -105 -82 -93 -151 -165 -166 -168 -132 -25 150 89 -217 -217 -224 -265 -256 -255 -257 -258 -249 -234 -224 -217 -196 -192 -179 -179 -157 -110 -49 37 93 154 182 183 163 106 70 9 -34 -89 -126 -123 -141 -165 -168 -146 -146 -141 -139 -150 -158 -140 -142 -140 -126 -137 -140 -123 -146 -134 -113 -91 -75 -83 -85 -94 -94 -108 -108 -108 -119 -125 -130 -115 -127 -128 -129 -124 -123 -129 -113 -125 -132 -128 -118 -110 -98 -116 -90 -78 -59 -56 -91 -134 -149 -160 -126 -45 76 247 110 -186 -182 -200 -210 -223 -215 -215 -210 -209 -198 -179 -192 -176 -174 -166 -135 -110 -64 13 92 157 211 242 218 195 138 85 27 -23 -62 -93 -106 -115 -128 -129 -129 -120 -109 -129 -122 -122 -111 -131 -133 -132 -145 -137 -147 -142 -149 -131 -144 -157 -134 -143 -159 -132 -144 -137 -144 -141 -128 -128 -100 -86 -114 -65 -76 -88 -73 -64 -61 -41 -32 -15 -6 7 18 -7 -65 -52 -55 -88 -16 110 240 150 -182 -150 -137 -188 -147 -175 -160 -167 -127 -138 -118 -85 -81 -78 -71 -27 0 59 107 194 270 328 363 343 327 272 232 184 141 117 107 92 102 98 93 85 97 100 100 91 83 88 88 98 93 97 87 88 90 115 94 109 109 104 103 101 128 122 136 134 145 132 122 135 118 158 159 188 171 196 236 189 149 133 109 87 179 312 314 305 -19 7 80 -6 66 26 42 46 40 39 66 88 71 119 137 158 174 228 287 365 427 481 491 500 427 411 371 312 267 254 229 226 213 223 207 207 187 181 179 187 177 170 170 177 174 175 162 134 141 134 121 121 91 101 100 110 104 88 75 78 75 72 82 85 84 88 77 86 109 117 50 29 27 6 46 95 221 334 31 -128 -48 -106 -95 -101 -100 -91 -100 -79 -62 -87 -80 -61 -61 -67 -35 -7 39 95 181 203 235 257 234 198 142 62 37 -11 -34 -63 -84 -100 -98 -89 -100 -86 -101 -86 -84 -91 -109 -109 -109 -135 -122 -145 -136 -143 -145 -148 -157 -148 -154 -157 -153 -132 -135 -137 -155 -166 -164 -177 -185 -194 -184 -184 -196 -187 -186 -164 -161 -154 -143 -143 -101 -140 -187 -208 -217 -211 -81 17 98 84 -171 -191 -177 -213 -193 -211 -193 -225 -212 -201 -198 -208 -186 -167 -171 -149 -124 -71 -26 64 134 194 228 230 173 131 63 16 -28 -76 -97 -105 -112 -103 -105 -91 -108 -77 -78 -88 -77 -93 -92 -95 -90 -90 -90 -82 -92 -91 -102 -107 -121 -117 -117 -139 -114 -112 -131 -130 -134 -140 -140 -136 -125 -136 -128 -108 -134 -134 -125 -140 -128 -104 -89 -95 -90 -68 -53 -76 -131 -158 -150 -153 -69 -4 140 160 -203 -217 -209 -246 -225 -239 -237 -230 -234 -221 -204 -195 -184 -158 -163 -142 -105 -71 -12 50 116 203 237 239 231 176 126 65 19 -29 -58 -68 -66 -54 -73 -58 -36 -36 -48 -33 -37 -48 -51 -48 -63 -50 -53 -74 -70 -65 -59 -94 -96 -79 -88 -78 -58 -63 -40 -31 -42 -28 -24 -12 -10 -10 -22 -13 -2 17 26 29 35 52 75 57 -3 -27 -50 -28 -8 89 323 315 -4 -127 -27 -45 -61 -45 -41 -49 -35 -14 0 -12 -5 7 20 31 50 79 137 220 305 354 419 419 405 366 305 261 204 180 76 130 120 128 137 127 115 126 140 139 135 140 165 150 156 149 92 81 81 94 70 92 86 95 107 84 129 122 102 114 122 143 157 133 149 163 186 204 200 203 223 193 144 136 144 130 206 343 432 302 0 61 112 65 96 70 91 89 82 81 79 97 112 109 103 126 163 191 270 335 423 473 540 531 496 462 406 346 325 295 282 262 240 253 259 245 262 254 248 258 236 237 241 220 233 219 217 207 188 185 189 181 195 177 185 178 176 194 164 168 184 157 175 171 191 198 211 217 175 135 125 120 98 177 311 395 226 -29 34 39 -2 25 11 10 22 18 5 19 20 17 13 36 49 85 127 167 255 297 344 362 348 308 258 207 130 96 70 49 20 8 19 21 6 16 33 18 24 0 -14 -14 -15 -11 -39 -49 -34 -50 -45 -56 -69 -72 -61 -69 -64 -77 -76 -86 -76 -86 -97 -86 -95 -99 -101 -106 -92 -103 -96 -98 -97 -105 -68 -111 -181 -168 -199 -176 -101 35 214 41 -266 -234 -238 -286 -259 -290 -293 -282 -280 -288 -289 -256 -252 -276 -252 -233 -214 -161 -90 -40 38 87 109 99 64 20 -14 -83 -137 -164 -186 -200 -189 -188 -191 -194 -180 -181 -183 -188 -169 -180 -194 -203 -191 -217 -222 -197 -236 -246 -241 -243 -240 -243 -233 -246 -242 -251 -261 -250 -242 -249 -243 -256 -271 -282 -283 -306 -297 -323 -314 -304 -302 -300 -300 -271 -258 -269 -267 -256 -247 -214 -253 -320 -342 -337 -310 -252 -159 86 -37 -366 -355 -401 -412 -389 -390 -385 -386 -379 -377 -363 -360 -340 -322 -310 -297 -272 -227 -153 -98 -22 48 74 74 59 14 -37 -95 -138 -181 -207 -215 -233 -227 -227 -201 -210 -199 -189 -212 -202 -186 -182 -205 -190 -190 -207 -202 -192 -203 -203 -215 -210 -204 -215 -230 -202 -205 -217 -222 -223 -242 -214 -200 -204 -204 -207 -185 -184 -184 -185 -176 -170 -160 -160 -128 -92 -106 -115 -68 -44 -74 -116 -117 -122 -123 -66 57 197 107 -185 -163 -126 -186 -124 -150 -126 -124 -122 -111 -101 -94 -79 -67 -45 -25 -13 44 115 188 255 331 366 363 351 331 295 233 168 150 128 106 100 97 109 108 121 122 134 139 144 130 144 149 126 139 133 134 144 147 127 160 140 151 134 139 130 152 148 148 142 146 158 160 149 172 175 180 188 192 193 228 205 175 183 157 190 208 363 472 167 25 130 142 148 132 145 132 143 141 136 154 180 186 183 204 192 223 274 313 376 461 511 548 548 546 505 466 423 372 328 294 287 275 260 283 272 269 289 280 267 280 256 260 259 246 235 238 100 228 226 205 201 193 192 192 187 177 160 161 153 141 149 145 153 183 159 156 196 182 186 132 99 70 114 73 218 341 152 141 0 -7 20 -61 -51 -71 -39 -63 -71 -54 -58 -40 -63 -39 -29 -32 -4 43 110 179 244 295 306 301 253 219 146 99 40 -11 -22 -37 -56 -56 -70 -58 -70 -60 -51 -54 -67 -71 -84 -78 -91 -104 -117 -108 -111 -122 -123 -135 -137 -147 -156 -168 -170 -185 -192 -178 -193 -193 -202 -214 -216 -225 -223 -248 -249 -251 -250 -222 -210 -200 -185 -184 -161 -151 -189 -234 -258 -239 -222 -84 105 177 25 -261 -270 -287 -299 -282 -294 -301 -303 -293 -284 -287 -267 -254 -253 -228 -219 -186 -113 -71 16 81 116 137 134 104 59 -12 -77 -114 -148 -153 -181 -169 -166 -171 -145 -155 -152 -156 -160 -155 -151 -164 -176 -173 -173 -174 -186 -192 -188 -178 -197 -203 -195 -194 -225 -237 -236 -244 -234 -234 -237 -214 -225 -207 -210 -221 -211 -200 -202 -214 -207 -210 -221 -209 -217 -207 -233 -214 -192 -200 -169 -168 -155 -128 -167 -191 -230 -248 -246 -136 -10 155 34 -276 -278 -282 -312 -280 -298 -277 -303 -293 -275 -285 -273 -260 -248 -239 -238 -211 -168 -108 -13 40 104 159 164 164 115 66 -6 -36 -71 -107 -134 -146 -145 -156 -130 -127 -133 -122 -109 -127 -116 -114 -126 -119 -129 -127 -157 -137 -152 -156 -137 -155 -134 -126 -117 -111 -125 -104 -105 -86 -68 -79 -78 -57 -58 -82 -69 -68 -68 -66 -74 -51 -21 -26 -18 -8 7 36 -18 -58 -56 -53 -30 50 216 311 26 -185 -83 -91 -117 -70 -95 -44 -44 -46 -33 -15 -14 12 36 40 49 112 156 215 300 372 455 485 499 473 431 394 337 307 259 245 239 
#II[uV]
26131 21898 20830 16648 15586 11289 10742 7162 6197 1005 -302 -268 -273 -284 -298 -294 -271 -283 -277 -266 -266 -252 -214 -239 -190 -173 -145 -106 -30 0 64 92 92 66 53 14 -18 -62 -73 -106 -104 -129 -117 -116 -84 -91 -91 -90 -77 -99 -89 -100 -99 -121 -121 -148 -115 -130 -130 -135 -123 -118 -96 -113 -88 -95 -95 -109 -88 -100 -80 -108 -71 -95 -85 -97 -72 -95 -54 -4 18 24 52 13 -27 -39 -91 -44 -70 -84 507 1186 851 -20 -186 -157 -170 -159 -186 -172 -173 -151 -136 -146 -124 -108 -82 -56 -31 -9 33 74 133 205 260 275 266 240 218 166 138 95 52 11 8 8 8 9 42 26 41 9 33 20 10 -1 -8 -22 -44 -55 -54 -61 -35 -70 -59 -59 -47 -60 -37 -47 -42 -54 -41 -41 -26 -43 -31 -45 -34 -41 -41 -36 -23 -36 -25 -38 -25 -31 -15 -3 65 80 101 111 69 0 0 -90 35 -121 59 403 942 1276 13 -324 -66 -231 -130 -202 -133 -158 -135 -133 -122 -108 -100 -75 -62 -73 -26 0 61 120 198 244 284 273 257 213 176 113 91 47 33 0 0 -10 18 14 14 12 12 3 2 -11 3 -29 -16 -44 -46 -46 -50 -60 -48 -70 -85 -74 -75 -89 -78 -89 -91 -91 -69 -83 -88 -86 -75 -86 -71 -86 -61 -71 -42 -78 -51 -66 -62 -11 3 25 33 51 18 -55 -43 -106 -32 -142 163 795 1017 455 -205 -237 -205 -232 -237 -239 -242 -229 -221 -233 -220 -217 -168 -183 -146 -136 -103 -86 -21 36 97 120 142 128 100 79 55 -5 -36 -74 -85 -111 -100 -113 -104 -94 -91 -102 -95 -94 -83 -99 -88 -99 -102 -125 -139 -128 -126 -149 -132 -144 -134 -134 -141 -157 -131 -117 -126 -116 -114 -120 -85 -136 -102 -90 -126 -116 -80 -52 -30 5 0 -28 -53 -96 -122 -120 -143 -173 267 1034 1158 12 -399 -264 -304 -270 -291 -267 -279 -253 -248 -238 -227 -216 -186 -202 -133 -134 -109 -88 -13 43 79 123 123 114 110 50 13 -11 -49 -90 -74 -80 -67 -68 -67 -78 -65 -55 -63 -63 -51 -61 -71 -72 -50 -75 -65 -56 -57 -57 -39 -57 -24 -24 -23 -22 -13 -13 -5 4 19 0 25 14 22 100 89 141 150 139 100 36 37 40 0 -42 275 1077 1504 355 -291 -124 -167 -107 -129 -98 -120 -96 -80 -78 -66 -69 -76 -33 -1 20 44 104 168 216 274 307 307 307 270 230 184 116 93 77 52 39 37 21 19 40 53 43 56 45 59 52 52 39 16 27 43 19 24 22 10 21 23 23 23 22 25 14 25 25 35 6 16 42 16 52 53 14 57 45 75 128 142 154 153 140 61 50 29 9 -82 -56 257 1132 1528 73 -393 -143 -253 -134 -188 -148 -149 -137 -109 -102 -84 -96 -70 -44 -21 -10 29 65 106 201 261 283 293 259 217 184 148 104 59 21 -27 -28 -13 -24 -11 -12 8 -6 -16 -14 -6 -8 -19 -28 -7 -14 -42 -15 -3 17 39 50 43 18 31 31 31 31 31 21 -13 7 31 19 21 8 19 19 22 33 32 9 -2 30 41 65 104 152 152 142 121 73 68 -5 85 -43 30 630 1461 1092 -118 -209 -91 -112 -130 -114 -104 -115 -103 -81 -69 -91 -75 -35 -27 -22 -6 51 100 166 206 282 310 299 282 237 194 136 65 64 24 -16 -44 -4 -18 -18 -9 -9 -46 -21 -21 -38 -68 -38 -49 -59 -58 -69 -86 -86 -72 -72 -97 -74 -98 -113 -90 -88 -111 -90 -99 -86 -98 -59 -58 -68 -40 -41 -78 -33 -43 -43 -27 58 29 87 89 74 -5 -1 -78 -10 -145 -108 377 1099 1225 -64 -372 -188 -308 -204 -286 -231 -267 -255 -217 -227 -204 -202 -189 -182 -148 -122 -98 -60 0 51 110 146 136 118 93 42 30 -12 -47 -57 -76 -53 -62 -69 -78 -78 -89 -78 -98 -87 -108 -108 -85 -102 -114 -112 -128 -118 -119 -118 -116 -116 -117 -128 -126 -109 -118 -92 -103 -81 -104 -114 -90 -126 -74 -24 6 15 27 51 -23 -33 -115 -38 -182 -68 387 1026 1253 1 -347 -185 -321 -191 -263 -225 -223 -210 -201 -189 -156 -145 -123 -88 -88 -61 -49 9 60 121 155 170 170 145 131 95 71 60 21 21 7 18 6 28 12 -3 -1 8 6 17 5 15 7 16 4 5 -28 -4 -20 -8 -19 -35 -38 -28 -28 -13 -49 -38 -38 -27 -29 -19 -17 45 64 69 81 92 43 21 -31 -5 -77 -75 117 854 1581 444 -366 -195 -255 -179 -230 -164 -179 -166 -150 -128 -126 -116 -94 -84 -77 -32 -28 29 63 137 176 215 227 227 189 166 112 100 33 22 -6 -5 -18 -5 -8 -8 6 10 10 22 9 14 -12 -1 -26 -14 -36 -26 -53 -19 -22 -26 -49 -27 -42 -17 -20 -9 -21 -10 -35 -34 -48 -35 -71 -35 -59 -38 -52 -26 20 64 65 86 92 67 2 24 -78 47 -125 117 537 952 1156 17 -244 -25 -166 -87 -135 -93 -115 -101 -102 -83 -82 -60 -40 -23 -12 11 51 98 162 232 283 322 311 290 239 196 138 114 78 56 35 27 26 36 38 37 40 52 28 34 8 20 3 14 3 27 4 4 -10 -16 -33 -33 -31 -20 -41 -30 -28 -30 -41 -25 -35 -35 -40 -17 -31 -8 -8 -21 -32 -19 -31 -29 -5 59 62 88 99 76 14 15 -84 18 -140 -30 246 1009 1522 83 -366 -109 -228 -118 -187 -130 -153 -148 -125 -96 -97 -84 -84 -78 -66 -29 -16 24 74 149 208 253 244 246 197 161 112 80 14 0 -21 -22 -24 -24 -19 -19 -12 -25 -23 -22 -29 -19 -43 -64 -64 -64 -97 -83 -78 -90 -115 -105 -115 -103 -116 -108 -101 -60 -86 -73 -86 -66 -77 -68 -68 -68 -70 -70 -58 -12 -2 29 48 43 -7 -23 -103 -52 -121 -126 104 913 1496 351 -355 -198 -266 -210 -260 -208 -245 -213 -196 -180 -191 -180 -180 -158 -158 -136 -109 -77 -37 34 61 122 153 127 103 63 21 -8 -43 -66 -83 -95 -82 -82 -82 -82 -84 -60 -74 -74 -84 -71 -102 -90 -102 -172 -183 -179 -179 -181 -202 -193 -194 -183 -193 -193 -183 -175 -164 -148 -158 -143 -155 -145 -106 -82 -43 2 -17 -38 -110 -121 -173 -106 -224 -136 407 1184 1045 -145 -357 -244 -310 -275 -305 -300 -257 -243 -266 -239 -226 -229 -211 -197 -174 -146 -131 -75 -38 39 49 79 115 66 44 38 -11 -32 -84 -105 -95 -106 -127 -86 -98 -123 -97 -87 -87 -88 -97 -113 -102 -88 -113 -124 -124 -134 -159 -154 -128 -115 -107 -109 -101 -101 -122 -109 -95 -83 -99 -69 -21 0 34 43 -27 -39 -69 -115 -114 -196 -39 620 1353 778 -278 -301 -233 -262 -249 -240 -216 -204 -189 -203 -205 -175 -163 -160 -115 -114 -89 -54 -16 49 103 154 181 180 141 72 76 66 27 17 -5 -34 -34 -14 -34 -23 -23 -49 -12 2 -9 -11 -23 -29 -28 -43 -77 -46 -51 -76 -47 -59 -62 -40 -75 -107 -69 -57 -79 -90 -75 -76 -76 -77 -80 -86 -86 -90 -56 -19 13 14 28 -9 -74 -91 -133 -92 -192 -47 607 1402 828 -294 -309 -269 -251 -239 -258 -237 -237 -222 -267 -215 -192 -214 -176 -140 -131 -108 -77 -51 32 95 154 181 170 159 115 56 38 -1 -62 -60 -71 -80 -70 -78 -57 -55 -45 -56 -86 -37 -48 -89 -61 -61 -63 -94 -91 -99 -87 -93 -81 -93 -80 -93 -80 -80 -94 -108 -62 -71 -67 -67 -67 -84 -84 -107 -96 -115 -104 -102 -108 -92 -76 -76 -65 -31 -3 21 57 68 42 -19 -22 -127 -44 -163 -122 405 1183 1127 -181 -345 -150 -253 -152 -222 -158 -178 -168 -144 -144 -138 -111 -100 -74 -50 -38 -4 43 87 161 214 253 251 237 181 157 108 66 21 4 -22 -32 -25 -14 -14 -1 -13 -11 -30 -20 -30 -14 -47 -33 -48 -62 -67 -45 -67 -69 -82 -79 -79 -79 -105 -77 -91 -80 -83 -95 -100 -71 -74 -75 -87 -75 -75 -74 -74 -75 -80 -83 -68 -67 -55 45 43 46 71 71 -18 -4 -83 15 -127 -48 377 1056 1292 19 -329 -121 -240 -137 -214 -168 -181 -168 -162 -135 -150 -111 -123 -101 -89 -65 -44 2 24 112 144 205 190 192 170 141 92 46 20 -1 -22 -29 -55 -20 -44 -30 -31 -19 -31 -32 -33 -31 -50 -50 -61 -49 -77 -72 -62 -78 -80 -80 -65 -76 -97 -87 -81 -68 -85 -62 -81 -58 -82 -95 -91 -63 -29 3 0 13 -4 -39 -56 -67 -56 -70 -128 430 1058 871 115 -162 -191 -158 -194 -196 -198 -188 -180 -167 -135 -124 -123 -113 -80 -68 -69 -3 -13 47 127 135 182 194 194 169 153 101 61 51 31 21 -1 -2 21 22 9 28 24 21 20 31 20 31 19 4 7 -136 12 12 7 19 1 12 12 27 17 28 28 5 22 51 25 59 101 136 122 184 195 133 80 65 7 121 -42 335 876 890 685 8 -155 -59 -126 -131 -137 -127 -116 -106 -105 -55 -61 -20 -36 -25 11 29 60 115 163 241 291 314 316 278 268 209 177 127 87 116 57 71 53 63 61 75 66 93 79 81 79 79 63 74 45 68 30 53 41 52 40 50 27 41 30 41 26 39 44 42 29 30 40 40 29 63 33 56 28 54 74 108 168 209 221 223 177 175 108 182 108 149 302 943 1786 810 -69 65 24 107 54 79 66 81 94 92 92 114 126 149 163 173 201 249 273 359 393 453 453 453 423 390 318 282 228 193 164 152 152 165 163 177 167 179 165 161 161 183 137 153 130 130 106 117 94 101 75 87 75 97 85 61 50 62 41 63 46 28 61 46 76 75 76 73 84 82 59 51 63 63 73 76 74 73 74 102 154 174 168 179 172 109 87 63 60 16 29 514 1259 1038 -49 -281 -88 -130 -99 -97 -69 -68 -73 -49 -66 -72 -41 -16 -20 3 3 47 71 119 198 265 302 307 295 267 219 166 93 83 38 14 1 1 -10 13 5 4 -6 4 -18 -50 -19 -29 -55 -44 -68 -79 -90 -91 -123 -137 -138 -123 -111 -93 -108 -96 -96 -99 -100 -90 -101 -89 -101 -85 -110 -97 -108 -97 -109 -119 -108 -59 -37 -32 1 1 -39 -79 -147 -116 -175 -244 -29 657 1357 454 -410 -325 -346 -311 -329 -280 -304 -313 -262 -249 -264 -238 -238 -227 -221 -252 -182 -147 -127 -54 -17 7 84 97 75 39 11 -31 -90 -112 -149 -146 
#III[uV]
28221 23600 22583 17938 16917 12106 11510 7276 6441 1189 -172 -170 -130 -146 -158 -164 -164 -170 -170 -181 -181 -192 -155 -173 -160 -189 -211 -244 -234 -299 -278 -290 -291 -268 -256 -257 -232 -236 -224 -237 -234 -252 -240 -251 -224 -236 -238 -240 -230 -240 -228 -241 -214 -226 -237 -239 -216 -214 -225 -226 -203 -209 -184 -210 -172 -182 -166 -183 -162 -184 -168 -164 -141 -154 -128 -140 -101 -139 -123 -78 -41 -40 -12 -50 -77 -41 -65 -16 -63 -126 319 846 704 48 -161 -113 -98 -104 -120 -100 -99 -84 -73 -74 -64 -52 -25 -27 -16 -27 -30 -41 -62 -61 -50 -51 -43 -33 2 4 41 59 49 39 50 39 39 42 51 40 63 22 47 36 25 33 43 30 20 20 20 25 53 39 50 34 60 59 73 57 71 61 76 65 78 70 93 81 93 87 98 101 106 98 118 106 133 121 121 108 184 181 204 192 145 105 154 88 213 54 142 392 817 1204 228 -108 154 40 123 86 119 94 130 130 141 130 149 141 155 142 142 126 99 82 100 81 95 81 92 96 106 85 113 109 120 101 102 88 100 86 101 87 70 80 82 58 66 56 68 56 54 26 41 30 42 32 24 42 42 23 34 23 23 14 33 15 11 21 19 -3 7 -3 19 6 38 -4 33 6 -9 28 53 52 52 46 5 -11 11 -17 22 -95 89 567 898 423 -101 -155 -140 -143 -169 -153 -168 -169 -154 -179 -166 -188 -161 -182 -177 -200 -213 -236 -264 -295 -281 -316 -316 -307 -320 -307 -284 -284 -277 -291 -282 -302 -290 -303 -303 -315 -316 -324 -310 -325 -311 -334 -342 -341 -342 -354 -354 -353 -337 -367 -352 -365 -354 -370 -370 -385 -373 -363 -363 -366 -352 -378 -354 -392 -353 -345 -376 -376 -333 -330 -306 -279 -262 -311 -336 -289 -327 -299 -356 -394 -99 550 883 -51 -490 -390 -399 -387 -400 -376 -376 -383 -353 -361 -372 -361 -338 -377 -331 -358 -357 -389 -394 -396 -417 -417 -418 -407 -371 -392 -377 -387 -368 -398 -378 -372 -365 -365 -374 -374 -361 -372 -387 -377 -360 -353 -363 -352 -330 -319 -320 -308 -283 -290 -270 -273 -246 -234 -232 -210 -202 -203 -173 -167 -155 -158 -132 -143 -139 -70 -75 -36 -22 -43 -67 -75 -80 -42 -105 -133 60 720 1266 290 -266 -128 -160 -53 -91 -72 -72 -49 -47 -47 -32 -35 -43 -14 17 17 7 6 -6 -6 -2 -14 11 21 27 37 71 60 89 116 132 123 138 118 118 128 129 119 132 130 130 130 133 130 97 111 137 131 140 134 130 139 141 140 133 135 141 141 151 140 157 131 129 178 165 185 197 150 197 185 192 256 266 276 258 222 154 202 194 175 85 76 283 982 1438 291 -175 81 12 121 67 108 108 112 124 122 132 99 122 134 157 147 140 114 68 108 106 101 109 96 110 113 139 139 148 147 96 112 151 143 134 134 149 133 133 144 133 133 120 98 130 125 81 130 130 131 131 125 126 103 125 125 140 140 140 140 111 137 147 147 149 138 144 142 152 146 158 142 125 149 152 163 220 242 230 202 178 164 203 143 245 82 76 554 1214 981 67 -27 108 97 93 101 110 94 105 116 109 101 100 138 139 112 103 116 87 73 48 70 68 80 87 99 109 109 88 127 118 90 71 123 111 111 110 99 83 101 101 73 63 95 83 85 78 78 56 63 59 72 60 60 44 45 42 56 25 53 41 41 30 40 28 45 25 35 9 40 21 18 14 90 44 93 81 56 2 63 -25 45 -57 -92 267 858 1074 117 -222 -51 -119 -56 -111 -71 -100 -127 -78 -109 -119 -121 -110 -110 -120 -122 -157 -168 -194 -219 -217 -217 -207 -209 -179 -190 -153 -154 -164 -165 -168 -155 -160 -163 -163 -175 -189 -179 -189 -170 -196 -196 -183 -196 -211 -199 -216 -208 -235 -213 -226 -226 -221 -232 -227 -238 -240 -228 -238 -226 -237 -237 -226 -244 -232 -183 -181 -156 -168 -185 -213 -182 -248 -148 -269 -247 75 711 948 20 -354 -265 -314 -258 -289 -267 -270 -251 -240 -255 -245 -217 -243 -226 -247 -236 -277 -278 -304 -305 -325 -321 -330 -282 -279 -276 -240 -207 -233 -207 -218 -195 -217 -179 -194 -190 -183 -170 -181 -160 -164 -154 -169 -158 -171 -156 -163 -146 -154 -130 -140 -126 -140 -128 -139 -117 -137 -114 -117 -103 -102 -102 -102 -38 -23 -8 -4 -16 -74 -29 -61 -33 -83 -121 21 632 1246 413 -237 -146 -149 -83 -128 -64 -87 -66 -71 -65 -39 -36 -33 -22 -9 2 -21 -9 -31 -43 -26 -19 -29 -7 -8 24 49 63 45 57 57 79 82 93 80 92 93 112 96 107 101 124 97 108 108 108 108 109 89 126 126 130 98 127 114 135 111 125 115 145 131 130 129 150 122 148 124 158 135 159 184 225 220 229 236 168 143 211 130 265 85 198 520 854 1071 188 -52 151 46 105 75 100 109 110 99 115 126 126 127 148 136 136 122 124 98 98 88 94 80 117 107 132 121 143 155 153 140 140 130 141 129 146 117 131 117 112 102 112 99 104 94 117 86 96 80 85 74 87 85 96 98 84 84 100 88 109 105 105 95 107 105 120 99 113 101 106 108 98 98 148 158 179 168 129 90 146 73 168 13 39 250 868 1362 287 -148 99 17 106 51 106 77 85 95 108 98 99 74 85 75 75 55 37 24 33 5 16 5 15 21 34 47 60 44 59 46 44 30 49 39 16 23 23 9 15 18 31 4 -1 -14 -10 -22 -12 -12 -30 -21 -9 -35 -14 -37 -49 -38 -19 -54 -30 -58 -42 -65 -57 -57 -45 -57 -68 -75 -39 -32 -6 -3 -32 -64 -19 -76 -1 -92 -118 14 589 1180 356 -228 -170 -221 -148 -215 -166 -196 -178 -182 -180 -179 -174 -187 -178 -189 -186 -189 -215 -258 -271 -293 -297 -265 -278 -263 -242 -240 -213 -223 -143 -213 -215 -211 -219 -209 -197 -211 -201 -214 -210 -224 -236 -253 -247 -251 -265 -265 -261 -274 -252 -294 -279 -289 -291 -278 -323 -306 -277 -279 -270 -302 -300 -288 -294 -269 -268 -247 -198 -220 -262 -303 -266 -310 -250 -354 -342 63 751 743 -145 -419 -357 -375 -372 -376 -392 -347 -326 -348 -319 -324 -341 -321 -300 -300 -310 -322 -345 -373 -384 -424 -460 -415 -429 -417 -368 -358 -358 -380 -388 -358 -346 -381 -346 -344 -386 -351 -335 -345 -324 -335 -355 -322 -322 -332 -342 -332 -323 -345 -343 -310 -310 -284 -295 -280 -277 -317 -273 -263 -267 -257 -244 -192 -190 -163 -168 -244 -215 -205 -240 -234 -295 -216 308 958 552 -249 -335 -273 -260 -275 -251 -227 -226 -208 -208 -224 -195 -180 -173 -152 -163 -175 -182 -184 -205 -194 -189 -180 -167 -167 -185 -130 -64 -68 -53 -55 -55 -43 -33 -56 -29 -39 -83 -30 -21 -10 3 -8 -13 -16 -3 -27 -11 0 -31 9 10 10 20 -5 -42 8 18 7 -14 11 20 9 18 18 15 20 2 47 77 111 112 134 58 37 90 34 107 -16 54 571 1187 787 -27 -74 -30 35 19 32 55 44 57 20 74 63 37 99 112 102 106 83 38 73 56 66 72 71 95 95 71 121 135 101 126 128 108 118 113 136 124 136 126 102 132 132 104 142 130 153 128 106 136 158 147 162 146 162 140 166 161 156 152 188 171 181 176 189 187 198 176 210 182 219 212 196 209 224 223 206 226 265 288 314 315 257 234 298 215 292 147 130 564 1096 1164 185 10 251 158 236 167 227 207 211 233 219 221 228 221 236 246 234 222 197 185 183 165 178 176 178 167 194 204 204 202 212 193 201 202 212 186 208 185 178 182 182 155 167 157 157 141 145 135 146 135 133 133 130 124 136 124 124 113 137 138 127 141 142 125 128 116 131 110 110 110 110 96 87 91 92 72 138 150 162 140 115 56 111 33 138 -4 18 320 858 1185 204 -166 4 -53 -13 -64 -42 -56 -45 -50 -34 -55 -32 -56 -56 -64 -52 -88 -113 -163 -143 -186 -160 -173 -159 -160 -154 -141 -121 -130 -130 -129 -129 -152 -130 -153 -152 -153 -153 -171 -177 -164 -176 -200 -177 -201 -183 -211 -216 -210 -206 -241 -220 -217 -211 -237 -218 -233 -217 -233 -204 -227 -217 -243 -245 -264 -239 -209 -185 -192 -180 -233 -244 -231 -250 -214 -261 -336 67 585 703 90 -293 -334 -307 -327 -342 -331 -331 -322 -303 -289 -305 -309 -297 -285 -261 -292 -277 -327 -328 -333 -375 -365 -354 -352 -336 -313 -322 -311 -276 -263 -266 -276 -262 -261 -249 -259 -261 -256 -246 -260 -225 -240 -228 -227 -230 -230 -236 -216 -214 -197 -181 -191 -179 -179 -160 -160 -131 -132 -147 -119 -98 -119 -93 -81 -22 -34 -12 12 -52 -52 -34 -63 7 -116 116 535 738 543 8 -148 -79 -64 -80 -65 -88 -52 -35 -51 3 -20 42 3 4 43 33 17 4 -15 -2 -4 7 14 25 49 62 77 87 99 139 95 127 109 134 120 146 126 144 133 149 151 164 142 165 150 185 139 165 164 175 175 187 175 197 198 211 212 231 223 236 223 233 254 256 255 287 282 305 279 305 296 318 368 395 406 385 328 364 342 440 348 372 387 837 1608 785 192 335 311 406 337 374 367 384 387 376 379 381 380 402 391 392 387 363 345 343 312 337 316 319 319 330 331 359 342 342 317 334 322 332 334 322 322 332 322 322 316 335 301 329 303 303 281 304 287 290 254 285 279 292 279 286 288 299 285 297 280 266 275 271 283 285 298 284 285 285 273 258 274 285 283 293 281 307 289 295 355 344 337 335 301 276 278 294 308 262 165 524 1104 1004 226 -3 193 182 180 200 208 235 219 226 218 201 219 231 218 241 214 216 179 133 157 160 143 143 131 152 152 172 129 154 145 148 147 146 145 144 132 138 116 113 108 66 95 96 64 85 59 78 46 60 32 0 16 11 15 23 3 28 7 5 -14 -22 -21 -11 -44 -26 -27 -28 -39 -28 -42 -44 -56 -37 -11 -13 9 -6 -76 -61 -88 -60 -122 -214 -79 441 1046 427 -224 -241 -254 -193 -258 -184 -260 -269 -216 -216 -248 -224 -251 -263 -262 -301 -295 -304 -342 -355 -390 -448 -400 -401 -398 -391 -383 -369 -398 -371 -395 -385 
#avR[uV]
-12021 -10098 -9538 -7679 -7128 -5236 -4987 -3524 -2976 -410 216 183 207 211 219 212 189 198 192 175 175 156 136 152 110 78 40 -15 -86 -150 -203 -237 -237 -200 -182 -143 -98 -55 -38 -12 -12 3 -3 -8 -28 -26 -27 -29 -37 -20 -25 -20 -7 8 2 28 6 23 17 22 21 14 4 7 2 4 12 17 7 8 -3 26 0 18 21 27 21 25 -7 -34 -38 -45 -58 -39 -11 18 58 36 39 20 -348 -763 -498 44 105 100 121 107 126 122 123 109 99 109 92 82 70 42 23 -4 -49 -94 -164 -236 -285 -300 -288 -257 -217 -163 -117 -65 -27 7 16 11 11 11 -16 -5 -9 2 -9 -2 2 18 30 38 55 65 64 74 62 90 85 76 77 90 73 76 78 85 79 74 65 78 78 86 80 85 90 86 76 85 84 91 92 91 76 57 26 10 0 -14 2 52 76 134 71 149 11 -207 -533 -673 101 269 143 252 192 245 193 205 200 198 193 174 174 145 140 144 97 62 -11 -79 -148 -204 -236 -233 -211 -164 -123 -70 -34 7 26 50 50 54 31 29 36 31 23 36 38 40 30 57 50 72 73 59 71 76 69 86 98 96 97 101 96 101 103 98 85 91 94 97 84 85 75 84 70 75 61 75 67 70 57 25 23 0 -7 -28 -15 50 49 97 43 94 -119 -511 -567 -244 155 159 135 161 152 163 158 144 144 144 137 122 87 92 58 35 -3 -31 -111 -183 -238 -278 -301 -282 -260 -232 -197 -136 -101 -70 -55 -39 -45 -38 -47 -63 -66 -59 -59 -68 -71 -68 -82 -71 -68 -52 -37 -48 -42 -34 -43 -37 -42 -50 -44 -34 -55 -63 -54 -67 -61 -68 -91 -59 -74 -82 -61 -71 -86 -112 -123 -145 -130 -127 -114 -48 -41 -28 -34 -23 -317 -758 -716 -38 154 69 104 76 91 79 91 61 71 57 41 35 17 13 -32 -45 -69 -106 -183 -242 -288 -332 -332 -318 -296 -247 -201 -182 -134 -109 -114 -105 -115 -113 -119 -108 -114 -131 -129 -124 -129 -115 -110 -103 -114 -84 -95 -97 -84 -87 -95 -79 -99 -92 -93 -82 -87 -88 -80 -87 -97 -80 -91 -86 -92 -135 -127 -159 -161 -161 -134 -74 -77 -61 -52 -23 -245 -717 -871 -209 158 59 87 80 83 61 84 71 56 54 50 51 55 25 9 -11 -41 -100 -171 -219 -276 -314 -301 -296 -256 -212 -148 -86 -48 -19 13 22 31 37 39 24 11 16 9 19 5 13 14 25 32 28 25 46 46 44 54 48 47 47 43 45 45 56 50 45 43 58 47 46 65 40 45 60 41 47 20 0 -9 -15 -23 -28 15 50 68 78 125 94 -116 -641 -809 71 305 183 259 195 221 202 203 193 171 163 151 146 131 112 100 84 40 -7 -72 -147 -208 -233 -238 -211 -161 -127 -79 -35 15 52 75 84 89 96 79 79 66 72 83 86 73 75 79 77 72 77 83 80 69 47 25 12 20 33 31 31 38 38 38 49 69 61 41 54 53 60 52 51 53 39 46 61 65 44 34 16 6 -30 -36 -41 -32 8 32 77 37 84 7 -353 -854 -601 152 195 145 161 177 165 160 163 156 139 124 142 126 104 97 79 58 6 -57 -129 -182 -247 -276 -258 -239 -188 -139 -81 -21 -1 34 61 79 66 73 73 64 59 88 71 71 75 99 85 90 102 98 108 114 117 101 108 127 104 120 136 111 116 124 117 120 107 113 80 72 91 52 58 83 53 53 52 34 -12 -7 -40 -48 -46 6 33 65 33 116 62 -243 -669 -688 123 261 162 248 176 230 195 217 191 177 172 144 142 133 127 88 61 19 -23 -97 -161 -219 -255 -239 -223 -183 -137 -107 -64 -35 -25 -8 -24 -17 -12 -3 -9 -5 -10 3 2 9 9 -6 4 8 12 19 13 1 12 3 3 6 12 12 -9 -2 -21 -15 -32 -14 -4 -22 4 -42 -67 -97 -93 -112 -143 -83 -58 -9 -35 47 -55 -350 -670 -779 9 170 52 164 62 118 91 88 85 81 61 33 37 1 -24 -35 -56 -89 -148 -213 -274 -318 -330 -335 -286 -271 -233 -191 -163 -138 -125 -117 -115 -115 -117 -110 -91 -89 -93 -97 -97 -88 -93 -92 -95 -90 -83 -53 -68 -56 -56 -51 -28 -31 -36 -41 -45 -19 -18 -20 -24 -21 -31 -33 -65 -76 -73 -83 -100 -80 -35 0 -10 35 14 -106 -538 -957 -237 247 122 181 137 165 132 135 133 114 95 107 98 77 72 72 33 18 -34 -79 -159 -190 -225 -242 -230 -193 -154 -87 -69 -10 6 34 44 59 51 48 54 40 45 37 31 40 47 61 55 80 68 90 81 98 82 85 91 98 91 99 85 76 72 79 82 101 99 112 110 132 110 121 117 119 106 72 48 44 28 25 16 68 81 143 85 168 -17 -277 -525 -620 76 218 101 189 140 173 143 170 157 152 141 145 123 103 97 80 56 10 -36 -113 -183 -238 -275 -271 -231 -185 -130 -77 -42 -1 20 35 42 38 34 26 35 18 13 29 21 42 35 45 38 43 31 39 44 50 59 70 77 74 68 90 72 70 80 85 79 87 87 88 71 83 68 58 77 83 72 85 79 54 14 16 0 -15 -11 30 58 121 66 146 49 -121 -574 -841 60 292 159 237 172 213 183 192 191 173 150 146 134 121 120 104 67 44 -5 -62 -133 -206 -245 -241 -239 -186 -144 -89 -50 7 28 44 44 39 48 39 28 24 37 28 30 39 35 45 64 57 58 85 76 71 74 104 100 97 96 97 83 82 50 59 58 57 45 45 39 39 45 42 36 20 -7 -13 -32 -50 -59 -25 13 65 51 75 67 -96 -618 -906 -173 241 112 156 135 153 124 147 124 105 90 101 92 86 69 63 42 14 -29 -91 -170 -207 -271 -286 -266 -234 -184 -141 -97 -68 -5 -23 -12 -23 -27 -22 -16 -21 -40 -32 -30 -28 -46 -23 -33 -23 39 50 49 42 55 55 53 49 38 54 31 30 36 24 13 7 -6 11 -2 -28 -52 -80 -101 -92 -92 -41 -11 18 -19 46 -34 -375 -808 -673 73 148 65 122 89 117 104 84 80 92 79 64 58 50 47 23 -8 -30 -97 -148 -231 -261 -309 -323 -281 -253 -222 -167 -146 -105 -88 -83 -67 -62 -86 -73 -69 -78 -80 -85 -74 -70 -63 -58 -72 -52 -46 -41 -27 -12 -17 -26 -40 -34 -37 -38 -37 -36 -27 -36 -50 -28 -52 -75 -96 -116 -127 -94 -68 -33 -4 -2 48 -68 -465 -874 -502 153 133 97 132 111 114 102 91 85 99 92 77 73 73 39 32 1 -36 -75 -152 -200 -249 -272 -264 -224 -165 -141 -98 -61 -44 -21 7 12 -2 6 8 3 8 -2 -13 4 13 19 22 20 41 63 40 51 60 51 64 67 50 72 86 73 67 82 83 80 87 81 86 89 93 96 91 80 58 42 41 38 39 93 136 150 146 184 74 -321 -808 -435 280 271 254 269 249 274 265 259 251 278 252 224 233 226 196 182 161 119 70 3 -66 -120 -145 -134 -112 -67 -20 22 69 113 123 136 135 129 134 126 118 113 120 137 103 114 142 132 126 140 158 144 167 166 167 162 167 162 163 163 161 173 185 156 157 158 155 162 177 183 195 201 206 214 208 206 197 188 188 168 144 136 123 99 89 86 136 171 235 190 237 187 -123 -635 -545 274 350 276 333 271 306 272 282 274 261 253 249 225 211 192 174 155 115 54 5 -69 -131 -164 -162 -148 -98 -59 -6 35 80 101 119 133 126 121 108 106 106 100 121 111 108 98 126 112 119 135 135 119 135 136 148 145 141 147 167 139 148 149 153 159 171 142 137 139 146 141 130 129 129 130 128 127 114 113 92 23 31 34 -1 -13 46 60 100 53 125 57 -217 -627 -700 83 246 123 213 130 182 147 152 145 137 118 122 95 95 73 57 39 0 -59 -106 -184 -238 -286 -276 -272 -251 -218 -162 -107 -85 -63 -42 -35 -21 -44 -31 -45 -45 -57 -53 -56 -48 -56 -49 -38 -38 -42 -28 -35 -42 -24 -40 -30 -43 -29 -20 -21 -35 -39 -31 -39 -32 -50 -38 -27 -40 -55 -75 -95 -96 -103 -112 -83 -59 -58 -50 -59 -40 -396 -765 -519 -70 15 24 4 30 25 33 22 19 15 -9 -27 -31 -35 -61 -61 -76 -135 -150 -211 -294 -323 -365 -371 -370 -337 -310 -262 -217 -189 -162 -154 -137 -128 -152 -147 -139 -158 -152 -144 -150 -144 -140 -145 -132 -119 -122 17 -120 -119 -106 -110 -97 -102 -102 -107 -97 -94 -95 -79 -82 -100 -85 -106 -142 -148 -139 -190 -189 -160 -106 -82 -39 -117 -15 -276 -609 -521 -413 -4 81 19 94 91 104 83 89 89 80 57 51 41 37 27 10 -12 -52 -113 -171 -243 -293 -310 -308 -266 -243 -177 -138 -84 -38 -47 -9 -7 1 3 -1 -2 -2 -20 -12 -7 -3 2 7 8 29 24 38 29 40 35 47 43 59 57 68 64 79 76 67 75 81 86 86 87 98 79 107 96 111 97 74 50 16 -11 -18 -30 -13 7 62 37 65 36 -109 -524 -982 -418 165 102 131 96 113 107 117 111 99 95 97 76 63 52 32 23 -7 -67 -100 -187 -237 -284 -295 -294 -264 -225 -153 -102 -57 -22 -5 14 8 0 3 -16 -6 -13 -4 0 -2 -16 13 11 21 21 33 34 48 43 51 54 63 49 54 82 93 86 101 85 94 104 76 89 65 67 72 68 58 59 77 77 73 78 68 70 66 79 69 45 22 -2 0 -12 -22 28 51 83 94 114 53 -251 -707 -536 163 279 185 221 190 197 173 186 183 162 175 172 151 132 129 117 104 60 18 -53 -119 -184 -230 -235 -230 -191 -143 -79 -28 -6 34 60 72 71 83 58 60 64 64 52 72 83 66 77 87 86 98 118 113 121 140 137 147 128 119 105 110 111 100 102 93 79 90 83 79 71 96 83 88 83 87 97 79 40 31 25 3 -4 1 49 103 86 114 137 -10 -437 -834 -240 298 204 218 214 200 187 174 179 154 141 139 126 112 95 90 101 35 -4 -44 -123 -177 -231 -284 -298 -274 -235 -203 -153 -108 -73 -47 -46 
#avL[uV]
-15155 -12650 -12167 -9613 -9123 -6461 -6139 -3695 -3343 -686 20 36 -5 3 9 17 28 28 31 48 48 65 48 53 65 102 138 191 219 299 311 336 337 301 283 264 223 204 187 183 181 187 181 192 182 190 192 194 191 190 184 191 164 165 176 164 159 149 160 158 142 149 135 154 128 134 118 128 118 134 128 109 106 106 85 91 65 92 96 76 50 53 38 57 63 21 20 -5 28 84 -65 -252 -279 -59 68 34 13 24 27 13 12 8 5 0 2 -1 -15 0 0 22 47 78 128 164 181 188 176 153 106 78 28 -11 -23 -33 -46 -35 -35 -37 -30 -27 -43 -18 -30 -26 -20 -34 -47 -42 -42 -48 -47 -56 -71 -75 -80 -64 -84 -89 -91 -81 -93 -88 -97 -86 -91 -92 -108 -104 -110 -108 -118 -119 -118 -116 -131 -126 -146 -137 -129 -109 -151 -140 -153 -136 -110 -105 -153 -133 -195 -115 -112 -190 -346 -566 -221 -53 -187 -156 -189 -187 -186 -173 -198 -197 -203 -185 -199 -178 -187 -178 -155 -126 -69 -21 0 40 46 55 36 10 -18 -28 -68 -86 -103 -101 -102 -93 -91 -79 -94 -81 -64 -79 -81 -64 -64 -71 -76 -79 -77 -49 -67 -61 -66 -67 -67 -80 -80 -68 -74 -68 -69 -60 -67 -57 -55 -64 -57 -40 -42 -39 -49 -42 -59 -34 -58 -39 -21 -34 -51 -39 -35 -20 3 -16 -33 -35 -38 24 -7 -169 -390 -195 -1 37 37 27 50 33 47 54 44 62 56 80 76 90 104 132 162 192 254 313 330 376 387 372 370 347 312 281 258 253 239 246 240 246 251 267 270 273 262 278 269 285 298 291 291 292 284 289 274 293 286 293 286 303 300 306 308 304 300 308 294 317 311 324 302 300 312 318 293 303 291 282 261 297 309 241 266 238 284 307 233 -33 -304 57 290 258 247 252 254 242 236 256 229 241 258 253 245 276 264 291 303 345 387 418 457 479 480 465 426 417 384 381 343 353 341 332 331 330 340 334 328 345 355 345 335 323 327 316 304 282 288 280 254 261 250 245 234 222 221 198 195 196 170 169 165 158 145 150 150 120 120 107 97 113 117 94 98 62 105 111 77 -181 -513 -113 120 66 76 0 26 23 12 1 6 8 -1 0 5 -2 -17 -7 14 45 90 114 139 167 142 132 107 77 20 -2 -43 -77 -106 -103 -119 -107 -108 -108 -103 -97 -103 -107 -100 -104 -106 -111 -89 -98 -115 -122 -128 -123 -124 -128 -129 -129 -121 -124 -128 -133 -138 -128 -139 -128 -120 -157 -156 -159 -171 -142 -168 -162 -154 -192 -194 -199 -181 -152 -123 -177 -180 -171 -127 -104 -154 -415 -674 -254 -20 -152 -138 -189 -161 -183 -183 -180 -179 -173 -174 -148 -157 -157 -168 -152 -125 -81 -15 -7 23 40 36 33 -1 -21 -64 -86 -119 -137 -109 -126 -158 -156 -140 -140 -145 -136 -142 -151 -136 -137 -130 -112 -134 -132 -102 -138 -132 -122 -111 -100 -104 -94 -110 -110 -124 -124 -124 -129 -118 -133 -131 -137 -138 -134 -134 -133 -140 -129 -142 -137 -127 -134 -131 -130 -168 -166 -154 -131 -117 -128 -168 -146 -203 -104 -61 -238 -483 -435 -126 -77 -154 -153 -158 -158 -162 -152 -157 -157 -144 -146 -138 -156 -153 -123 -106 -90 -36 9 54 70 86 68 54 19 -12 -40 -55 -94 -105 -98 -93 -125 -120 -120 -115 -104 -106 -111 -111 -92 -97 -114 -107 -115 -108 -113 -99 -106 -95 -108 -108 -97 -94 -102 -87 -100 -81 -98 -91 -84 -79 -70 -57 -79 -45 -55 -49 -57 -42 -40 -27 -61 -29 -50 -37 -19 -4 -64 -13 -50 -15 38 -78 -309 -461 -149 36 -42 -34 -45 -31 -44 -33 0 -29 -4 16 20 16 19 46 61 108 138 194 245 272 290 275 268 226 211 169 148 141 136 130 129 129 128 124 136 145 140 140 126 142 142 141 145 154 143 152 149 175 154 167 167 162 168 164 183 181 182 186 185 185 180 181 181 195 171 185 164 182 211 201 166 191 129 178 213 118 -198 -321 -20 180 172 153 162 157 154 158 145 139 161 166 144 181 181 202 205 252 282 335 366 403 406 415 355 345 324 276 237 244 218 222 204 220 193 201 188 182 175 184 168 167 162 173 166 173 159 149 143 144 125 130 109 121 114 125 111 113 95 98 89 87 92 93 61 56 43 45 62 96 39 45 30 44 83 37 -205 -456 -191 54 49 21 -5 13 -17 -2 -16 -4 1 -23 -21 -13 -19 -28 -19 6 24 63 112 115 127 143 121 103 58 6 -13 -28 -46 -60 -81 -91 -95 -85 -96 -90 -106 -91 -95 -96 -116 -103 -108 -121 -115 -126 -123 -116 -136 -137 -143 -123 -141 -135 -144 -121 -130 -126 -150 -149 -147 -153 -167 -158 -166 -154 -177 -161 -173 -174 -193 -187 -186 -189 -134 -141 -199 -169 -241 -148 -139 -251 -378 -493 -179 -69 -164 -129 -149 -143 -146 -167 -161 -150 -157 -167 -156 -147 -159 -142 -130 -97 -75 -17 17 52 67 74 28 12 -34 -52 -86 -115 -125 -122 -126 -116 -123 -110 -127 -97 -104 -102 -95 -97 -102 -97 -97 -92 -103 -84 -94 -86 -94 -90 -104 -101 -106 -118 -99 -98 -115 -109 -121 -123 -123 -115 -116 -120 -124 -104 -123 -118 -116 -124 -113 -101 -119 -126 -135 -118 -91 -83 -139 -116 -159 -83 -54 -127 -364 -600 -245 -34 -154 -131 -166 -145 -171 -154 -159 -158 -156 -146 -142 -116 -124 -109 -90 -63 -25 12 41 99 110 116 107 77 45 8 -20 -37 -58 -57 -55 -42 -61 -48 -26 -30 -36 -21 -26 -33 -41 -26 -31 -18 -21 -25 -28 -26 -14 -36 -43 -21 -37 -20 -4 -12 -10 11 -5 14 9 26 23 23 11 21 33 46 32 30 20 27 53 61 7 24 -24 31 55 37 -133 -432 -180 50 71 87 43 84 62 73 71 84 89 83 84 97 99 110 118 134 176 239 288 323 358 342 342 315 273 250 208 201 110 172 168 169 178 168 156 169 171 176 173 182 200 202 202 200 178 173 171 184 161 193 182 192 199 181 226 214 189 196 196 222 228 211 222 216 227 225 199 212 243 248 205 223 197 242 274 140 -159 -220 72 240 235 220 234 223 241 218 204 215 199 210 226 215 201 213 237 257 307 354 404 448 500 473 462 439 387 352 341 338 335 310 293 317 302 295 324 303 291 302 280 286 298 271 278 275 280 270 255 265 266 246 253 230 240 229 226 255 218 215 226 207 209 181 191 180 189 230 195 170 182 177 196 197 1 -281 -163 109 185 156 128 150 131 118 124 113 106 122 107 99 93 94 106 130 154 175 230 245 266 271 257 238 222 169 97 82 62 52 38 26 26 38 18 28 58 24 22 5 -9 -3 0 2 -18 -11 -11 -25 -6 -32 -40 -41 -40 -32 -10 -43 -47 -47 -30 -48 -59 -48 -57 -58 -58 -63 -47 -75 -86 -104 -105 -119 -63 -74 -136 -101 -153 -80 -78 -268 -486 -372 -119 -79 -103 -161 -139 -161 -174 -163 -169 -154 -182 -159 -144 -188 -182 -168 -160 -122 -64 -56 -9 10 18 13 -15 -37 -43 -102 -136 -132 -156 -164 -148 -153 -152 -165 -152 -158 -154 -145 -150 -156 -149 -173 -160 -185 -175 -151 -186 -202 -194 -203 -193 -202 -187 -206 -201 -204 -207 -219 -207 -215 -209 -223 -229 -240 -229 -258 -240 -271 -263 -250 -255 -262 -262 -239 -242 -267 -278 -285 -281 -236 -244 -309 -279 -315 -229 -191 -361 -505 -600 -275 -182 -326 -285 -312 -278 -306 -296 -295 -305 -291 -291 -284 -272 -273 -272 -253 -225 -175 -141 -103 -58 -52 -51 -59 -76 -116 -149 -171 -191 -210 -204 -217 -214 -220 -194 -209 -192 -183 -197 -192 -170 -175 -181 -174 -165 -176 -169 -169 -169 -168 -174 -170 -164 -175 -177 -163 -159 -177 -180 -175 -192 -178 -163 -166 -160 -169 -148 -147 -147 -147 -136 -128 -126 -126 -100 -115 -128 -139 -104 -80 -65 -114 -75 -130 -59 -42 -131 -330 -538 -195 1 -65 -66 -55 -43 -42 -34 -38 -30 -33 -19 -23 -5 5 19 19 66 114 175 199 258 263 268 255 246 225 187 145 140 129 118 114 125 119 130 136 137 143 155 161 147 160 174 152 170 158 173 180 179 167 200 180 184 172 188 174 193 182 190 173 186 188 201 197 218 207 195 187 192 187 230 225 203 217 185 225 272 147 -56 -268 -32 212 238 228 230 243 231 237 232 220 222 242 247 240 245 226 258 275 320 352 397 443 456 451 449 421 390 372 341 302 278 276 275 261 272 261 264 275 268 257 270 241 250 243 237 232 234 168 222 220 201 191 192 186 185 174 168 146 147 150 130 123 132 123 132 90 95 104 84 119 92 66 66 53 95 50 -96 -292 -201 -4 70 50 1 14 -3 24 -5 -18 -1 -31 -9 -52 -21 -17 -37 -19 13 52 97 123 150 149 143 114 85 41 10 -23 -55 -80 -66 -91 -83 -102 -89 -108 -93 -97 -93 -108 -111 -124 -110 -128 -127 -151 -124 -138 -143 -149 -155 -162 -161 -176 -183 -190 -199 -211 -201 -214 -208 -218 -234 -236 -240 -255 -265 -277 -265 -277 -259 -264 -284 -290 -295 -273 -239 -276 -288 -349 -294 -297 -235 -366 -715 -380 -227 -302 -299 -352 -309 -334 -334 -344 -340 -330 -333 -324 -317 -327 -310 -306 -286 -238 -208 -163 -115 -110 -89 -92 -107 -135 -171 -218 -228 -245 -235 -257 -245 -249 -252 -233 -238 -242 -239 -241 -235 -243 -232 -253 -238 -238 -227 -245 -240 -239 -216 -241 -241 -244 -237 -256 -263 -267 -265 -265 -257 -251 -244 -248 -245 -248 -260 -247 -242 -243 -243 -232 -242 -253 -246 -255 -244 -270 -251 -243 -277 -256 -252 -245 -214 -222 -234 -262 -278 -254 -151 -267 -474 -485 -251 -137 -237 -247 -230 -249 -242 -269 -256 -251 -251 -237 -240 -239 -229 -240 -213 -192 -143 -73 -58 -27 7 10 16 -18 -42 -89 -83 -112 -126 -141 -146 -146 -151 -137 -129 -136 -119 -111 -117 -91 -104 -111 -91 -107 -93 -117 -91 -106 -94 -69 -86 -72 -71 -70 -57 -77 -55 -55 -35 -22 -28 -33 -6 -15 -27 -20 -14 -19 -12 -15 2 8 -7 -2 -8 6 56 21 14 2 34 92 64 -112 -367 -200 19 78 81 37 93 44 107 112 84 91 116 104 131 149 151 175 204 230 279 328 381 452 442 450 435 411 389 353 353 315 320 312 
#avF[uV]
27176 22749 21706 17293 16251 11698 11126 7219 6319 1097 -237 -219 -202 -215 -228 -229 -218 -227 -223 -223 -223 -222 -185 -206 -175 -181 -178 -175 -132 -149 -107 -98 -99 -100 -101 -121 -125 -149 -148 -171 -169 -191 -178 -183 -154 -163 -164 -165 -153 -170 -158 -171 -157 -173 -179 -193 -165 -172 -178 -181 -163 -163 -140 -161 -130 -138 -131 -146 -125 -142 -124 -136 -106 -125 -107 -119 -87 -117 -89 -41 -11 -7 20 -18 -52 -40 -78 -30 -67 -105 413 1016 778 14 -173 -135 -134 -131 -153 -136 -136 -118 -104 -110 -94 -80 -54 -42 -24 -18 1 16 35 71 104 111 111 103 110 85 89 77 51 25 29 23 23 25 47 33 52 16 40 28 17 16 17 4 -12 -17 -16 -18 8 -15 -4 -12 6 0 17 4 14 3 17 12 25 13 30 18 29 23 28 32 41 31 46 34 53 45 53 52 125 130 152 151 107 52 77 0 124 -33 101 397 880 1240 120 -216 44 -95 -3 -58 -7 -32 -2 -1 9 11 24 32 46 34 57 63 80 101 149 163 189 177 174 154 141 99 102 78 77 50 51 39 59 50 57 49 41 42 42 23 34 13 26 6 4 -9 -4 -14 -2 -19 -30 -16 -16 -33 -21 -32 -33 -38 -18 -33 -38 -32 -27 -44 -32 -44 -21 -32 -2 -41 -8 -30 -35 8 28 39 42 49 11 -33 -16 -62 -4 -119 126 681 957 439 -153 -196 -172 -188 -203 -196 -205 -199 -188 -206 -193 -203 -164 -183 -162 -168 -158 -161 -143 -129 -91 -98 -86 -89 -110 -114 -114 -144 -157 -183 -183 -206 -195 -208 -203 -204 -203 -213 -202 -209 -197 -216 -215 -220 -222 -239 -246 -240 -232 -258 -242 -255 -244 -252 -255 -271 -252 -240 -245 -241 -233 -249 -219 -264 -228 -217 -251 -246 -206 -191 -168 -137 -131 -170 -195 -192 -224 -210 -249 -284 83 792 1021 -19 -445 -327 -351 -329 -345 -322 -327 -318 -301 -299 -300 -289 -262 -290 -232 -246 -233 -239 -204 -176 -169 -147 -147 -146 -130 -170 -182 -199 -209 -244 -226 -226 -216 -216 -220 -226 -213 -213 -225 -220 -205 -207 -217 -212 -190 -197 -193 -182 -170 -174 -154 -165 -135 -129 -128 -116 -107 -108 -89 -81 -67 -78 -53 -64 -58 15 7 52 64 47 16 -19 -21 -1 -53 -87 167 898 1385 322 -279 -126 -164 -80 -110 -85 -96 -72 -63 -62 -49 -52 -60 -23 7 18 26 55 80 104 136 146 159 164 149 134 128 88 91 97 92 81 88 70 68 84 91 81 94 87 95 91 92 85 56 69 90 75 82 78 70 80 82 81 78 79 83 77 88 82 96 69 72 110 90 119 125 82 127 115 133 192 204 215 205 181 108 126 112 92 1 10 270 1057 1483 182 -284 -30 -120 -6 -60 -19 -20 -12 7 9 23 1 26 44 68 68 85 89 87 154 184 192 201 178 163 148 143 121 103 84 34 41 68 59 61 60 78 63 58 64 63 62 50 34 61 55 19 57 63 74 85 87 84 61 78 78 86 86 86 80 48 72 89 83 85 73 82 81 87 90 95 75 61 89 97 114 162 197 191 172 149 119 135 69 165 19 53 592 1337 1037 -25 -118 8 -7 -18 -6 2 -10 0 17 20 4 12 51 56 44 48 84 93 120 127 176 189 190 185 168 151 122 77 95 71 36 13 59 46 46 50 44 18 39 39 17 -2 28 16 12 9 4 -15 -11 -6 0 -18 -7 -26 -34 -23 -16 -42 -18 -28 -22 -33 -9 -14 -11 -7 -3 -34 3 -10 -12 -6 74 36 90 85 65 -1 30 -52 17 -101 -100 322 978 1150 26 -297 -119 -213 -130 -198 -151 -184 -191 -147 -168 -161 -162 -150 -146 -134 -122 -127 -114 -97 -83 -53 -35 -35 -45 -42 -74 -61 -83 -105 -111 -122 -104 -111 -116 -120 -127 -139 -129 -144 -128 -152 -152 -134 -149 -162 -155 -172 -163 -177 -166 -171 -171 -169 -180 -177 -173 -179 -160 -171 -153 -171 -176 -158 -185 -153 -103 -87 -70 -70 -67 -118 -107 -181 -93 -225 -157 231 869 1101 10 -351 -225 -318 -224 -276 -246 -247 -231 -221 -222 -200 -181 -183 -157 -167 -149 -163 -134 -121 -92 -84 -75 -79 -68 -73 -90 -84 -73 -105 -92 -105 -88 -105 -75 -90 -96 -92 -81 -87 -71 -79 -69 -81 -71 -83 -75 -96 -75 -87 -69 -79 -80 -89 -78 -83 -65 -93 -76 -78 -65 -65 -60 -60 3 20 30 38 37 -15 -3 -46 -19 -80 -98 69 743 1413 428 -302 -171 -202 -131 -179 -114 -133 -116 -110 -96 -83 -76 -64 -53 -43 -14 -24 9 15 46 75 98 98 109 90 95 80 82 39 39 25 36 32 44 36 42 49 61 53 64 55 69 42 53 40 47 35 41 17 53 51 52 24 50 36 59 45 57 46 67 48 48 40 57 25 56 32 60 41 66 102 145 143 158 164 118 73 117 26 156 -20 157 529 903 1113 102 -148 63 -59 8 -30 3 -2 4 -1 16 21 32 43 62 61 74 87 111 130 165 185 208 196 203 173 164 129 128 116 104 87 84 78 89 83 91 79 91 73 73 55 66 51 59 49 72 45 50 35 34 20 27 27 38 28 26 28 34 23 42 35 35 27 44 37 55 45 46 34 43 38 34 46 104 110 134 133 103 52 81 -5 93 -63 4 248 938 1442 185 -257 -4 -105 -5 -67 -12 -38 -31 -15 5 0 7 -5 3 4 23 19 30 49 91 106 135 125 131 109 98 80 70 29 29 12 11 3 12 9 -1 5 0 -7 -3 -5 6 -19 -33 -39 -37 -60 -48 -45 -60 -68 -57 -75 -58 -77 -79 -70 -39 -70 -52 -72 -54 -71 -63 -63 -56 -63 -69 -66 -25 -17 11 22 5 -35 -21 -90 -26 -106 -122 59 751 1338 354 -291 -184 -243 -179 -238 -187 -220 -196 -189 -180 -185 -177 -183 -168 -174 -161 -149 -146 -148 -118 -116 -87 -56 -75 -80 -89 -109 -110 -133 -104 -148 -155 -146 -151 -145 -139 -148 -131 -144 -142 -154 -153 -178 -169 -176 -218 -224 -220 -227 -216 -248 -236 -242 -237 -235 -258 -245 -226 -221 -209 -230 -222 -222 -220 -187 -175 -145 -97 -119 -150 -207 -194 -241 -178 -289 -239 235 967 894 -145 -388 -300 -343 -323 -341 -346 -302 -284 -307 -279 -275 -285 -266 -249 -237 -228 -226 -210 -205 -172 -187 -190 -150 -181 -186 -165 -184 -195 -232 -247 -226 -226 -254 -216 -221 -254 -224 -211 -216 -206 -216 -234 -212 -205 -222 -233 -228 -228 -252 -249 -219 -212 -196 -202 -191 -189 -219 -191 -179 -175 -178 -156 -106 -95 -64 -62 -136 -127 -137 -178 -174 -245 -128 464 1155 665 -263 -318 -253 -261 -262 -246 -221 -215 -199 -205 -214 -185 -172 -167 -133 -139 -132 -118 -100 -77 -45 -17 0 6 -13 -56 -27 0 -20 -18 -30 -45 -39 -23 -45 -26 -31 -66 -21 -9 -10 -3 -15 -21 -22 -23 -52 -28 -26 -54 -18 -24 -25 -10 -40 -75 -30 -19 -35 -52 -32 -28 -33 -29 -30 -35 -32 -44 -4 28 62 63 81 24 -18 0 -49 7 -104 3 589 1294 807 -161 -191 -150 -108 -109 -113 -91 -96 -82 -123 -70 -64 -88 -38 -13 -14 0 3 -6 53 76 110 126 120 127 105 64 79 66 19 32 28 13 24 17 39 34 45 34 7 47 41 7 40 34 45 16 7 18 35 26 40 26 40 23 42 40 31 22 63 49 56 54 61 51 57 34 56 33 57 55 44 58 73 73 70 97 131 155 186 191 150 107 138 44 124 -7 4 484 1140 1145 1 -167 50 -47 41 -27 34 14 21 44 37 41 58 60 81 97 97 109 120 136 172 190 216 213 208 174 175 156 135 111 108 85 84 88 98 86 103 86 83 75 80 62 76 55 62 46 41 33 50 33 31 25 25 22 28 9 23 11 28 27 15 20 35 25 26 14 27 17 18 18 17 7 1 11 12 8 92 97 104 105 93 18 53 -25 76 -66 -15 349 957 1239 112 -248 -58 -146 -75 -139 -105 -118 -107 -106 -84 -102 -71 -90 -79 -76 -59 -66 -55 -69 -15 -20 22 8 16 5 -6 -24 -37 -54 -66 -75 -79 -103 -75 -98 -91 -92 -86 -101 -104 -98 -104 -125 -113 -131 -116 -144 -144 -136 -142 -160 -150 -141 -143 -167 -152 -157 -143 -159 -133 -154 -137 -163 -170 -178 -151 -119 -91 -95 -83 -118 -141 -143 -158 -135 -165 -232 249 822 787 102 -228 -262 -232 -260 -269 -264 -260 -251 -235 -212 -215 -216 -205 -183 -164 -181 -140 -170 -140 -103 -120 -91 -80 -79 -83 -79 -110 -124 -112 -116 -122 -138 -132 -119 -113 -124 -116 -116 -112 -119 -96 -110 -98 -104 -113 -111 -186 -101 -101 -95 -81 -95 -83 -83 -66 -71 -51 -52 -71 -48 -23 -46 -17 9 57 43 85 104 40 13 15 -27 64 -79 225 706 814 614 8 -151 -69 -95 -105 -101 -107 -84 -71 -78 -26 -41 10 -16 -10 27 31 39 60 73 119 143 161 165 151 158 135 127 107 93 127 76 99 81 99 91 110 96 118 106 115 115 122 103 119 97 127 85 109 102 114 108 119 101 119 114 126 119 135 133 139 126 132 147 148 142 175 158 181 153 180 185 213 268 302 313 304 252 269 225 311 228 261 344 890 1697 798 61 200 168 256 195 227 217 232 241 234 235 248 253 275 277 282 294 306 309 351 353 395 384 386 371 360 325 321 285 268 240 243 237 249 248 249 244 256 243 241 238 259 219 241 217 217 194 211 191 196 165 186 177 194 182 174 169 180 163 180 163 147 168 159 179 180 187 179 184 183 166 155 169 174 178 184 177 190 182 198 255 259 252 257 237 193 182 179 184 139 97 519 1182 1021 88 -142 52 25 40 51 69 83 72 88 76 64 89 107 99 122 109 131 125 126 177 212 222 225 213 209 186 169 111 119 92 81 74 74 67 78 68 71 54 58 44 7 38 33 4 20 -4 0 -21 -15 -45 -68 -60 -56 -47 -35 -52 -34 -44 -47 -57 -56 -61 -50 -73 -56 -69 -63 -73 -63 -75 -82 -82 -48 -24 -23 5 -2 -58 -70 -118 -88 -149 -229 -54 549 1201 441 -317 -283 -300 -252 -293 -232 -282 -291 -239 -233 -256 -231 -244 -245 -241 -276 -239 -225 -234 -205 -204 -220 -157 -151 -161 -176 -186 -200 -244 -242 -272 -266 
