ADC Sampling rate (Hz):
100
Fragment duration (sec):
20
Number of samples exported by each lead:
1999

#I[uV]
-1154 -1293 -927 -898 -748 -691 -519 -453 -278 -339 -47 -71 -55 -59 -119 -149 -142 -190 -185 -222 -228 -217 -239 -214 -222 -246 -231 -229 -231 -233 -225 -216 -108 -23 5 21 46 63 72 95 81 95 92 115 116 110 139 165 174 150 119 61 41 58 21 72 -49 169 315 275 866 404 -7 104 -12 2 -30 -51 -64 -47 -39 -35 -29 -10 13 -3 24 53 65 114 156 212 247 262 269 253 179 78 8 -61 -124 -170 -156 -188 -175 -181 -178 -186 -183 -180 -197 -201 -176 -178 -189 -170 -183 -180 -180 -172 -187 -182 -152 -166 -178 -173 -186 -176 -176 -207 -169 -190 -169 -190 -196 -171 -196 -188 -185 -219 -187 -186 -190 -170 -211 -213 -184 -212 -194 -206 -191 -179 -197 -167 -149 -161 -143 -136 -133 -139 -134 -129 -151 -140 -155 -143 -173 -161 -144 -142 -161 -126 -86 -81 -91 -116 -146 -168 -152 -174 -222 -197 -221 147 751 584 85 -124 -138 -117 -186 -221 -196 -194 -151 -159 -164 -146 -133 -123 -77 -49 -38 8 68 96 159 213 253 279 285 203 138 9 -126 -196 -256 -298 -328 -341 -364 -366 -365 -383 -382 -371 -381 -364 -353 -352 -341 -218 -167 -115 -74 -60 -48 -42 -33 -32 -36 -34 -47 -46 -37 -30 -22 -44 -31 -24 -4 -7 -21 0 -19 -25 -9 -52 4 -20 -53 -33 -35 -32 -26 -29 -40 -40 -35 -53 -56 -53 -34 -54 -44 -43 -78 -59 -61 -52 -37 -62 -20 10 12 31 -33 -64 -78 -75 -80 -34 -94 50 368 516 555 61 -113 -21 -38 -55 -48 -44 -42 -66 -33 -7 8 -8 23 40 52 89 127 153 225 281 335 354 386 337 289 170 94 24 -22 -52 -66 -93 -72 -85 -91 -89 -63 -74 -93 -66 -87 -86 -81 -92 -77 -52 -54 -42 -25 14 32 44 76 51 79 39 -11 -2 -9 -40 -21 -59 -60 -53 -49 -54 -77 -101 -73 -69 -5 99 130 155 174 189 183 178 193 187 188 208 195 183 168 188 168 156 156 164 159 168 165 186 205 212 180 123 93 102 53 125 53 124 199 309 939 622 16 14 -16 -31 -100 -105 -76 -88 -91 -81 -66 -68 -43 -44 -30 -14 3 69 90 140 182 225 256 257 186 97 15 -82 -115 -178 -177 -182 -205 -190 -184 -201 -206 -190 -202 -182 -185 -168 -171 -169 -160 -157 -148 -148 -145 -149 -119 -118 -125 -121 -91 -104 -150 -184 -187 -181 -208 -239 -226 -219 -243 -241 -241 -231 -235 -238 -233 -145 -85 -27 36 59 80 88 91 114 86 97 101 103 122 102 120 111 118 115 110 121 77 95 106 97 103 96 92 90 143 144 143 156 97 47 35 86 35 67 -18 151 615 824 685 125 34 118 42 37 18 26 27 32 28 9 42 44 77 56 108 154 170 211 261 300 340 360 366 330 236 153 92 19 -64 -79 -75 -87 -90 -101 -108 -112 -101 -85 -76 -77 -82 -104 -81 -79 -90 -81 -69 -71 -65 -78 -50 -82 -118 -148 -170 -165 -186 -205 -192 -182 -212 -225 -226 -203 -203 -218 -205 -166 -77 -7 18 42 85 101 123 143 106 121 154 139 154 158 146 153 138 142 152 129 149 150 142 135 155 142 178 212 186 151 105 100 103 113 76 61 68 398 926 771 235 11 64 105 88 65 62 52 68 80 84 88 90 101 140 180 208 243 290 358 403 436 467 474 470 406 306 206 153 98 89 85 72 90 86 76 75 117 91 95 107 106 114 112 124 122 109 99 104 104 108 113 96 84 93 90 72 83 51 33 62 62 69 69 75 64 22 35 32 41 42 25 25 31 16 13 11 -38 -89 -90 -133 -166 -166 -166 -179 -193 -197 -204 -208 -216 -218 -209 -189 -125 0 94 137 129 126 104 54 134 94 111 24 78 512 906 859 241 76 149 114 114 67 80 103 94 90 95 108 165 198 213 250 301 285 328 403 452 469 492 537 479 439 340 267 194 129 110 48 24 14 35 46 47 53 48 58 59 55 70 61 58 78 81 55 70 74 71 61 65 41 73 88 55 36 25 4 -3 -8 35 30 10 39 -11 -34 -65 -92 -104 -143 -134 -104 -94 -79 -35 -68 -71 -69 -94 -136 -141 -184 -182 -178 -232 -193 -213 -220 -228 -223 -252 -228 -215 -228 -102 -38 9 46 57 109 120 179 186 136 125 97 131 58 98 -27 15 457 913 911 274 53 104 57 67 39 37 56 48 37 29 37 62 48 92 85 70 126 142 207 282 281 356 331 327 264 162 93 1 -65 -80 -106 -134 -117 -130 -137 -125 -127 -126 -115 -112 -131 -133 -107 -105 -84 -104 -109 -108 -105 -109 -114 -99 -120 -108 -135 -146 -120 -119 -127 -132 -138 -160 -138 -125 -142 -145 -131 -142 -172 -147 -153 -182 -175 -148 -168 -162 -154 -173 -159 -154 -176 -140 -151 -179 -151 -153 -143 -129 -143 -152 -123 -122 -120 -114 -105 -63 -19 -13 6 -17 -34 -68 -92 -81 -133 -113 -144 -32 478 842 435 -122 -123 -74 -107 -93 -104 -99 -126 -194 -206 -196 -206 -206 -190 -175 -147 -156 -107 -54 5 107 224 310 347 361 303 220 158 113 78 73 46 79 53 75 73 63 62 72 88 96 83 59 46 57 66 47 42 40 27 15 12 10 35 15 32 15 -2 19 10 0 12 17 20 -10 0 -13 -6 20 8 -1 4 -2 0 -15 -14 20 -33 5 11 -24 -9 -1 -13 -18 -14 3 -13 -50 -36 -8 1 3 21 20 23 28 69 70 36 0 -27 -42 -53 -31 -66 -125 109 654 896 536 65 -34 24 -5 -9 -28 -25 -24 -28 -15 -14 11 7 -11 7 2 35 31 86 120 158 201 215 216 152 80 -2 -73 -141 -179 -191 -176 -204 -215 -193 -176 -183 -186 -180 -164 -146 -137 -154 -177 -247 -255 -288 -301 -296 -347 -377 -328 -357 -331 -381 -382 -360 -331 -236 -187 -106 -98 -75 -39 -49 -15 -22 -26 4 -30 -31 14 -30 -31 -38 -6 -34 -34 11 -22 -33 -19 -15 -38 -22 -14 -33 -15 -46 -46 -49 -31 -68 -61 -55 -44 -20 12 -36 -16 -66 -109 -100 -144 -120 -128 -218 23 537 842 363 -122 -119 -83 -102 -111 -99 -135 -102 -90 -96 -67 -50 -44 -32 -12 17 83 62 132 190 222 262 254 299 242 154 49 -44 -97 -148 -158 -176 -167 -180 -181 -202 -199 -181 -167 -156 -159 -159 -160 -148 -120 -158 -155 -122 -129 -135 -159 -154 -155 -179 -168 -167 -172 -194 -171 -189 -184 -181 -199 -189 -213 -202 -177 -208 -203 -188 -185 -173 -196 -183 -185 -173 -150 -115 -105 -73 -63 -67 -70 -81 -61 -52 -54 -94 -42 -40 -58 -39 -62 -1 12 5 24 -2 -49 -88 -56 -71 -89 -147 -59 366 897 673 105 -54 -26 -4 -50 -75 -42 -42 -30 -26 -28 -43 -54 -70 -67 -68 -81 -69 -57 -49 0 28 60 74 14 -42 -69 -62 -83 -96 -86 -79 -84 -84 -61 -58 -44 -33 -16 -36 -36 -20 -18 -5 -9 -5 3 -2 7 3 -6 -22 -9 -24 -32 -37 -38 -38 -22 -46 -49 -36 -49 -73 -51 -56 -67 -71 -61 -74 -83 -71 -86 -90 -92 -105 -107 -120 -126 -101 -106 -109 -124 -121 -92 -95 -83 -81 -74 -68 -53 -63 -67 -103 -117 -117 -196 -222 -199 -199 -218 -252 -332 -368 -350 -361 -383 -401 -369 -47 576 703 273 -32 48 133 90 98 141 158 175 208 221 203 241 246 268 266 300 326 365 396 444 492 512 499 496 473 355 218 104 36 4 -45 -60 -81 -70 -82 -67 -78 -92 -70 -62 -90 -92 -95 -102 -102 -93 -100 -74 -117 -123 -111 -138 -155 -138 -147 -159 -157 -173 -173 -157 -167 -178 -187 -161 -174 -143 -153 -142 -118 -131 -119 -121 -136 -115 -151 -131 -131 -125 -121 -190 -116 -120 -128 -127 -132 -102 -153 -133 -103 -148 -116 -89 -77 -30 -26 -33 -58 -122 -148 -102 -137 -139 -194 -60 450 878 475 -58 -96 -26 -11 -5 -25 -10 -15 -8 36 33 21 14 4 -25 -28 6 25 72 72 130 172 186 199 173 56 -23 -117 -173 -148 -69 -15 19 30 49 52 34 82 84 66 99 106 124 104 110 135 139 118 121 145 114 106 119 109 104 124 117 114 102 124 99 72 98 90 95 75 66 75 72 44 77 87 60 79 54 66 63 70 31 67 69 51 57 41 69 60 35 52 24 33 9 42 76 93 69 29 -1 -51 -25 1 -54 -108 21 434 924 641 21 -4 18 -37 -49 -50 -60 -75 -37 -49 -36 -24 -22 -22 11 58 71 71 71 64 112 149 167 158 104 3 -77 -162 -249 -290 -299 -305 -319 -348 -234 -166 -85 -41 -17 28 59 116 113 111 160 161 159 178 159 146 161 141 121 127 151 134 124 127 137 125 119 115 132 146 125 110 145 116 117 108 113 104 98 95 71 67 70 67 63 46 52 22 57 68 46 57 60 45 55 47 53 36 47 35 49 115 123 111 77 22 -1 -4 -6 19 -55 -36 159 479 938 459 -43 -1 -50 -45 -88 -72 -86 -64 -45 -45 -29 0 7 15 40 63 70 120 194 213 251 276 276 228 139 -17 -114 -224 -309 -361 -380 -396 -424 -452 -451 -434 -448 -451 -434 -447 -448 -434 -425 -434 -336 -254 -217 -157 -119 -124 -100 -92 -85 -89 -99 -58 -58 -90 -65 -88 -41 -37 -43 -74 -62 -57 -61 -61 -70 -71 -42 -66 -49 -59 -75 -69 -64 -101 -75 -80 -71 -81 -90 -84 -72 -80 -73 -82 -63 -84 -81 -85 -70 -94 -38 -26 -35 -21 -67 -114 -106 -122 -101 -89 -181 2 449 665 485 -36 -150 -59 -120 -156 -178 -146 -160 -137 -144 -156 -123 -112 -127 -111 -66 -56 -15 49 72 139 200 193 187 157 76 -16 -81 -150 -189 -208 -221 -208 -231 -246 -234 -247 -234 -236 -251 -229 -241 -252 -243 -260 -268 -265 -284 -281 -276 -280 -297 -305 -314 -330 -343 -359 -351 -367 -363 -380 -425 -407 -459 -522 -550 -575 -629 -600 -631 -622 -648 -638 -651 -658 -665 -686 -672 -623 -508 -456 -430 -411 -391 -333 -343 -275 -227 -254 -248 -288 -342 -290 -308 -302 -316 -214 -41 227 613 174 -276 -226 -220 -236 -263 -266 -239 -240 -255 -213 -201 -194 -173 -172 -142 -146 -151 -129 -112 -108 -34 -26 -8 -39 -100 -188 -279 -335 -402 -436 -428 -385 -328 -272 -252 -180 -181 -163 -150 -117 -102 -123 -88 -99 -80 -72 -81 -69 -80 -49 -47 -53 -47 -61 -62 -73 -40 -47 -46 -49 -46 -39 -32 -33 -31 -18 
#II[uV]
2365 4198 1897 3993 1402 3556 955 3070 497 2603 48 53 41 8 -61 -83 -133 -158 -185 -199 -229 -202 -221 -216 -229 -233 -264 -250 -264 -240 -273 -228 -150 -61 -44 5 -20 29 18 84 75 109 110 170 156 202 165 209 201 201 163 134 99 117 88 120 98 381 546 470 680 295 -47 64 47 87 43 45 24 38 11 15 4 21 27 25 23 47 42 65 81 138 145 169 156 146 111 62 -12 -52 -100 -107 -126 -110 -118 -106 -109 -86 -93 -90 -93 -72 -96 -69 -58 -51 -64 -41 -58 -27 -27 -27 -46 -9 -15 -19 -20 -26 -49 -58 -81 -71 -92 -115 -129 -93 -130 -132 -155 -158 -157 -156 -152 -152 -152 -165 -172 -171 -169 -169 -195 -192 -189 -163 -131 -109 -81 -53 -36 -25 -53 17 -38 2 -24 28 -15 16 0 44 35 45 68 93 35 51 -24 13 -76 25 -128 10 66 357 794 370 -94 -178 -215 -103 -153 -143 -157 -121 -138 -94 -121 -92 -131 -62 -63 -73 -40 -40 0 31 82 101 175 204 217 217 167 74 14 -68 -128 -159 -181 -206 -209 -214 -219 -218 -227 -215 -227 -215 -193 -188 -174 -50 24 72 98 110 124 113 98 99 89 119 88 101 88 107 75 89 76 87 87 89 57 57 26 21 10 7 2 43 13 45 31 59 39 52 43 63 44 48 21 50 41 55 31 56 34 53 36 72 76 56 49 135 93 78 15 -18 -54 -41 -68 -54 -58 183 484 357 265 37 -219 -150 -140 -113 -101 -109 -107 -123 -134 -111 -100 -110 -122 -121 -80 -43 -4 13 64 131 148 157 184 213 188 178 102 79 41 15 -9 -22 -29 5 -22 -20 -17 14 -15 23 -10 11 -77 -52 -76 -11 -25 7 -1 43 69 117 116 126 111 98 47 46 22 27 -18 -25 -42 -6 -59 -37 -63 -50 -61 -17 38 162 205 254 257 318 300 302 285 294 257 334 255 318 270 292 259 311 253 278 265 339 291 325 316 293 216 216 124 143 76 108 105 256 396 456 698 314 -147 -151 -126 -110 -144 -171 -141 -117 -103 -98 -98 -104 -90 -92 -67 -40 -25 31 39 101 126 160 165 169 134 124 47 5 -42 -74 -103 -107 -118 -121 -127 -83 -101 -77 -124 -84 -139 -150 -128 -114 -136 -143 -145 -121 -138 -133 -156 -133 -135 -124 -134 -121 -169 -218 -233 -216 -255 -255 -287 -272 -262 -286 -260 -238 -246 -202 -244 -117 -51 31 56 95 116 137 129 163 157 178 159 184 182 211 200 208 208 218 166 196 151 174 141 114 106 124 114 136 125 183 118 74 45 23 -21 21 -29 48 14 287 722 604 286 -92 -154 19 -31 30 -10 24 28 57 50 51 70 84 82 105 117 129 135 163 199 241 246 270 265 267 224 199 101 21 -39 -54 -93 -103 -128 -127 -156 -148 -148 -159 -180 -153 -183 -161 -175 -166 -177 -177 -192 -182 -171 -160 -182 -188 -229 -233 -244 -212 -251 -243 -247 -236 -261 -256 -261 -226 -251 -237 -238 -180 -93 -9 14 48 76 107 105 164 137 108 159 124 114 128 98 73 90 83 60 52 39 52 34 -3 44 -25 58 95 35 31 -90 -40 -94 -10 -122 -46 74 435 768 419 70 -109 -117 8 -19 16 -7 18 11 76 -2 47 37 85 67 122 121 149 164 219 245 282 257 257 225 234 206 163 95 56 43 43 29 32 30 26 -2 18 27 31 28 1 24 45 32 48 46 25 25 37 42 74 53 71 73 82 68 92 70 68 68 93 62 93 94 85 68 59 56 69 81 85 69 104 65 75 34 -19 -72 -149 -137 -153 -168 -179 -239 -231 -249 -272 -257 -277 -258 -276 -238 -154 -56 16 27 20 8 -42 -28 20 -5 26 62 238 646 867 554 58 -54 7 88 145 112 141 125 147 149 156 205 246 256 314 323 368 354 387 402 435 425 420 428 400 380 330 268 179 117 122 52 -19 12 23 22 49 0 14 25 48 45 50 53 55 67 96 94 60 54 112 106 116 114 128 127 120 100 119 107 103 67 81 101 124 111 102 61 36 6 0 -41 -65 -38 -11 -55 -2 -18 -18 -56 -126 -144 -169 -188 -173 -206 -206 -220 -267 -252 -249 -249 -249 -251 -231 -244 -123 -63 -10 88 122 151 203 207 147 175 213 184 265 191 170 223 392 723 1022 752 185 70 155 209 196 222 242 208 182 158 135 98 131 121 132 127 114 125 138 163 197 180 221 187 188 148 38 47 -3 -58 -84 -129 -132 -146 -142 -118 -88 -113 -138 -97 -79 -75 -62 -50 -46 -23 -38 -31 -34 -44 -45 -56 -38 -48 -54 -51 -77 -87 -63 -60 -77 -97 -101 -147 -111 -190 -156 -196 -168 -171 -176 -197 -246 -223 -194 -229 -220 -217 -214 -228 -219 -199 -223 -241 -224 -221 -175 -176 -131 -144 -208 -145 -100 -111 -62 -58 -65 2 51 40 11 -12 -31 -55 -28 -82 -47 12 199 694 665 252 -137 -195 -95 -95 -68 -104 -104 -146 -183 -208 -255 -241 -241 -255 -242 -234 -208 -208 -162 -154 -146 6 88 110 153 135 122 89 77 65 66 43 50 66 99 54 117 100 48 122 143 138 146 133 141 85 58 112 104 96 89 77 86 72 71 43 26 13 30 11 0 -12 -67 -33 -17 -22 -6 -43 -107 -56 -38 -73 -60 -46 -92 -131 -86 -89 -89 -109 -83 -41 -24 -59 -18 9 32 3 -36 27 91 64 30 83 135 122 161 174 154 105 14 27 42 19 23 35 103 317 769 697 241 -106 -238 -78 -59 -58 -60 -67 -67 -96 -71 -60 -56 -112 -150 -89 -82 -93 -68 -67 -45 -25 11 -27 -55 8 -3 -76 -89 -140 -177 -188 -182 -197 -203 -183 -185 -201 -178 -169 -156 -144 -122 -145 -155 -210 -221 -255 -266 -280 -353 -357 -363 -422 -387 -408 -412 -413 -388 -312 -286 -216 -152 -134 -122 -156 -138 -111 -89 -92 -88 -111 -163 -138 -125 -127 -88 -102 -76 -51 -68 -53 -29 -27 -4 22 10 0 -32 -33 16 12 2 -34 6 34 39 51 1 7 20 -42 -69 -128 -131 -189 -112 -64 205 657 529 134 -222 -270 -122 -144 -117 -67 -111 -77 -93 -68 -56 -86 -49 -25 -36 -32 22 39 68 104 103 156 166 179 156 79 70 30 -19 -67 -67 -76 -73 -73 -71 -75 -78 -72 -112 -57 -24 -35 -48 -48 -50 -74 -136 -81 -98 -99 -107 -149 -122 -127 -173 -197 -167 -167 -174 -179 -193 -169 -217 -268 -234 -210 -225 -201 -234 -200 -159 -160 -157 -145 -130 -92 -136 -54 -30 -9 15 -28 25 23 -13 32 0 27 40 36 67 66 29 107 173 96 86 38 -45 -29 -29 -56 -48 -46 90 548 793 359 -98 -191 -138 -42 -76 -114 -63 -51 -53 -38 -59 -49 -88 -88 -83 -96 -115 -77 -97 -99 -68 -68 -96 -14 -38 -90 -3 48 51 49 46 21 47 58 54 83 107 102 70 80 76 65 70 70 71 63 17 49 79 42 4 -3 -11 20 38 22 30 30 24 21 11 12 9 9 -4 -17 17 24 33 50 29 2 14 47 30 27 0 0 7 6 -4 6 9 -6 -15 29 42 42 17 38 53 30 0 -24 -29 -47 -146 -204 -146 -182 -247 -279 -341 -364 -385 -360 -479 -375 -251 72 587 321 -88 -221 -150 10 11 65 39 137 157 178 207 207 248 221 203 246 275 289 278 326 341 356 391 380 374 363 300 225 125 69 27 -20 -45 -78 -93 -94 -146 -131 -156 -133 -144 -154 -161 -160 -184 -161 -184 -143 -153 -177 -204 -193 -222 -224 -252 -237 -246 -244 -260 -242 -229 -206 -225 -224 -214 -166 -188 -148 -132 -121 -116 -106 -119 -99 -104 -106 -95 -95 -90 -102 -134 -108 -86 -59 -85 -115 -130 -130 -155 -143 -169 -123 -124 -112 -71 -80 -138 -176 -222 -212 -232 -238 -253 -230 -40 460 495 136 -194 -330 -218 -140 -125 -103 -80 -57 -73 -37 -39 -25 -43 -53 -76 -65 -111 -80 -67 -45 -30 -6 21 14 -1 -3 -50 -82 -138 -121 -60 -54 -34 -5 -12 20 26 27 34 45 37 63 53 55 65 90 65 55 36 72 37 22 19 19 -2 50 32 55 28 60 52 75 65 56 53 77 70 81 60 82 71 90 78 104 77 110 98 130 61 103 92 92 67 68 53 46 4 32 8 34 12 24 58 37 -20 -57 -101 -88 -124 -102 -135 -66 137 525 629 257 -179 -236 -179 -121 -127 -82 -97 -67 -53 -27 -44 -20 -40 0 -7 70 51 65 34 48 48 86 59 73 26 15 -50 -119 -214 -247 -296 -270 -337 -306 -250 -158 -120 -46 -36 28 50 95 96 108 120 147 135 151 124 125 98 126 70 93 94 150 124 177 144 167 161 184 160 191 165 203 203 206 170 192 154 204 143 197 154 187 166 178 165 190 160 163 134 157 107 124 113 113 88 102 58 91 75 109 83 145 132 92 45 22 -13 -13 -13 -22 -27 113 308 561 617 211 -134 -61 -11 11 -7 37 0 51 49 98 87 112 107 130 144 169 158 199 218 277 266 303 250 222 116 52 -49 -114 -198 -248 -303 -316 -375 -388 -406 -390 -412 -385 -407 -409 -398 -385 -419 -402 -308 -225 -175 -106 -112 -80 -42 -37 -23 -6 -11 15 38 48 47 64 87 103 80 95 85 75 90 92 79 102 91 100 114 111 97 97 85 73 37 44 29 30 3 38 21 13 1 8 -2 4 -26 -8 -1 -9 10 53 -7 0 -52 -52 -82 -49 -79 -27 6 259 677 514 319 62 -107 9 -3 16 9 38 49 72 76 74 105 94 107 131 145 157 176 230 230 272 271 286 249 244 219 183 137 114 72 72 50 51 22 57 18 58 20 64 15 73 32 57 6 49 14 48 11 53 26 87 18 82 13 59 22 42 14 32 20 15 -4 -7 -76 -106 -156 -156 -217 -190 -229 -209 -289 -242 -278 -294 -321 -342 -330 -287 -187 -126 -118 -96 -67 -19 -41 17 40 15 -19 -81 -99 -84 -92 -94 -80 86 281 510 549 186 -128 -115 -60 -37 -31 -18 4 44 14 30 58 60 55 93 79 80 42 41 46 61 73 87 76 60 12 -36 -124 -161 -237 -262 -305 -241 -204 -161 -148 -99 -116 -75 -84 -68 -54 -44 -53 -40 -37 -27 -48 -36 -38 -7 -17 9 0 14 -1 39 -6 0 17 16 26 23 25 46 40 53 
#III[uV]
3520 5491 2824 4892 2151 4248 1474 3524 775 2942 95 125 96 68 58 65 9 32 0 22 -1 15 18 -1 -7 12 -33 -21 -33 -6 -47 -11 -41 -37 -49 -15 -66 -34 -53 -10 -6 13 17 55 40 92 25 43 27 51 44 73 58 58 66 48 148 212 230 195 -185 -108 -40 -39 59 85 73 96 89 86 50 51 33 31 13 29 -1 -5 -23 -49 -74 -73 -101 -92 -112 -106 -67 -15 -21 9 23 62 30 78 57 75 68 99 89 90 103 129 80 109 131 118 118 138 122 144 160 154 106 157 163 153 165 149 127 149 88 119 76 75 67 77 66 56 29 60 29 29 38 18 58 48 12 41 25 36 -3 -12 8 3 18 52 62 83 96 113 80 146 112 142 131 171 158 178 143 186 197 171 155 174 127 167 122 182 76 199 94 207 287 209 42 -213 -179 -53 -76 13 32 78 39 72 12 65 42 54 2 60 13 -24 -2 -49 -68 -65 -77 -112 -77 -75 -68 13 29 64 140 127 127 139 147 135 154 151 145 164 155 156 154 149 160 164 167 167 191 187 173 170 173 156 131 132 126 153 136 148 126 138 98 134 107 111 92 97 78 56 46 46 20 60 -1 63 67 78 67 91 65 81 84 103 79 101 77 104 76 109 75 99 112 112 97 125 114 119 70 125 80 46 49 45 24 33 11 -20 35 133 115 -159 -289 -24 -105 -128 -101 -57 -52 -65 -65 -56 -100 -103 -109 -102 -146 -162 -132 -132 -131 -140 -161 -150 -186 -196 -201 -123 -101 7 7 55 63 68 57 71 43 90 68 68 45 89 78 90 77 97 3 40 1 41 29 50 24 29 36 72 39 75 32 59 58 49 32 67 3 34 18 46 -9 17 14 51 12 52 44 62 75 99 82 128 116 123 92 107 68 126 59 134 101 103 91 154 96 114 105 170 125 138 111 80 35 92 30 41 22 -17 52 131 196 146 -240 -307 -164 -165 -110 -79 -43 -65 -64 -29 -11 -16 -31 -36 -46 -48 -37 -25 -29 -37 -51 -39 -56 -64 -90 -87 -51 26 32 87 73 103 73 74 87 69 57 117 105 112 78 97 46 18 43 54 24 14 2 26 6 15 -36 -15 -9 -2 -42 -16 -19 -34 -45 -34 -47 -15 -61 -52 -19 -44 -19 -6 -11 35 -10 28 34 58 19 35 36 49 37 49 70 81 58 80 60 108 80 96 89 102 55 75 74 79 35 16 3 27 21 45 -18 38 -25 -81 -51 -23 -56 -65 -65 -19 32 135 107 -219 -398 -218 -188 -98 -73 -6 -29 -2 1 24 21 41 27 39 4 48 9 -25 -35 -48 -62 -58 -93 -90 -101 -62 -12 45 9 1 25 25 -17 -16 -37 -25 -47 -35 -47 -74 -104 -75 -101 -57 -93 -86 -86 -96 -122 -110 -105 -81 -132 -106 -111 -84 -73 -46 -64 -37 -55 -53 -49 -31 -35 -23 -47 -19 -33 -13 -16 -1 -3 6 -8 6 -18 20 31 -12 4 -14 -39 -29 -48 -80 -48 -59 -92 -76 -110 -97 -108 -138 -110 -168 -120 -116 -151 -119 -196 -141 -197 -123 -199 -108 6 37 -157 -351 -165 -120 -182 -97 -108 -48 -69 -33 -56 -4 -86 -41 -53 -15 -72 -58 -87 -94 -126 -139 -158 -153 -209 -217 -244 -172 -100 -42 -57 -41 -46 -42 -43 -57 -55 -49 -78 -99 -64 -63 -78 -104 -90 -66 -91 -73 -62 -73 -78 -66 -65 -39 -42 -12 -20 -7 -3 8 18 34 5 30 -7 24 18 21 45 24 23 28 38 59 44 73 48 61 22 18 16 -58 -4 13 -2 -13 -59 -38 -51 -67 -49 -61 -40 -67 -49 -29 -56 -78 -109 -108 -118 -146 -83 -113 -99 -84 37 159 134 -38 -304 -183 -130 -142 -26 31 45 61 22 52 58 60 96 80 57 100 72 67 68 58 0 -16 -43 -72 -108 -79 -59 -9 0 -14 -12 12 3 -43 -1 -12 -24 2 -53 -34 -32 -11 -10 -20 -8 -3 -11 15 38 -9 -20 41 44 51 73 54 38 65 64 93 103 107 75 45 70 114 72 113 96 102 98 105 101 69 66 82 24 33 49 52 13 -32 -8 -28 -3 8 -28 26 -27 -53 -31 -21 -26 2 -23 -15 -15 -20 -25 -19 41 64 42 83 27 -39 38 87 87 133 133 72 251 377 266 108 -158 -89 16 51 151 128 183 204 151 133 120 106 60 68 72 39 42 44 0 -4 -44 -85 -100 -135 -144 -139 -115 -123 -46 -4 6 -3 -23 2 -28 -12 19 37 13 -11 17 33 56 70 56 59 61 66 78 73 61 63 57 60 71 54 83 68 32 55 66 54 40 58 -9 13 -48 -10 -65 -25 1 -28 -43 -64 -47 -46 -60 -58 -62 -40 -68 -64 -22 -82 -90 -44 -70 -22 -33 -1 0 -55 -22 22 8 51 47 -2 21 64 33 28 21 37 36 52 50 66 156 232 215 -176 -183 -14 -71 -20 12 24 0 -4 -20 10 -1 -59 -34 -34 -65 -66 -86 -52 -101 -107 -160 -253 -218 -222 -237 -207 -168 -97 -68 -35 -12 -7 -2 -29 12 24 -19 53 38 -23 34 46 55 86 86 83 18 11 70 63 69 74 64 75 37 56 10 10 15 10 1 1 -24 -84 -54 -7 -22 6 -36 -127 -64 -37 -77 -57 -46 -76 -117 -107 -56 -95 -120 -58 -32 -23 -46 0 24 28 17 13 64 99 63 27 61 114 99 132 104 84 69 14 55 84 73 54 101 229 208 115 -199 -294 -171 -204 -102 -54 -48 -32 -42 -42 -67 -56 -46 -68 -119 -139 -97 -85 -128 -100 -154 -166 -183 -190 -243 -272 -144 -84 -74 -15 1 2 2 -6 6 12 10 -9 -18 8 10 7 1 14 8 21 36 33 33 34 15 -5 20 -35 -65 -55 -27 -30 -52 -57 -75 -99 -109 -54 -58 -83 -107 -122 -89 -62 -96 -57 -79 -178 -107 -93 -89 -81 -68 -42 -63 -46 -20 -10 -11 33 44 24 34 -17 12 62 61 34 33 68 90 83 71 -10 43 37 24 40 -28 13 -68 16 154 182 120 -312 -228 -100 -151 -39 -42 -6 31 23 25 -2 28 10 -36 -5 7 -23 -49 -60 -22 -64 -85 -119 -105 -88 -120 -86 -74 21 75 77 80 90 99 93 106 110 126 121 109 55 99 135 124 111 99 70 83 19 40 30 35 51 5 33 51 -4 -30 4 27 -2 9 -9 11 -18 -79 -21 -8 -48 7 -30 -12 26 13 39 38 55 80 13 60 75 63 78 38 95 104 48 85 54 122 83 77 126 106 92 108 161 91 62 40 3 58 27 15 41 101 150 182 -104 -313 -204 -137 -112 -38 -25 -39 -21 -8 -22 -12 -31 -5 -33 -18 -15 -27 -33 -8 -40 -50 -68 -96 -156 -88 -52 -47 65 110 134 146 132 100 132 142 115 141 152 135 87 117 113 85 88 75 80 68 14 51 71 39 11 18 -1 45 70 60 68 69 46 68 61 49 59 82 47 38 85 95 94 124 112 73 100 138 122 133 107 121 133 107 101 115 134 114 77 124 125 124 92 106 107 93 67 79 87 70 50 17 52 16 -28 -26 -8 4 -35 0 -95 25 117 119 11 -382 -362 -189 -198 -122 -79 -33 -102 -20 -18 -30 -13 4 7 -24 -64 -20 -24 -37 -87 -69 -103 -136 -120 -119 -122 -110 -55 7 21 33 23 24 14 2 -22 -12 -79 -53 -64 -62 -81 -64 -69 -64 -82 -59 -91 -43 -78 -60 -80 -81 -83 -68 -113 -89 -87 -86 -86 -68 -72 -38 -47 -37 -52 8 -44 5 9 -3 14 12 1 37 10 44 35 35 34 18 55 7 34 68 42 16 -28 23 -21 -39 -20 -7 -34 -34 -40 -53 -104 -118 -100 -63 -129 -101 -114 -36 19 9 -383 -338 -135 -233 -192 -129 -120 -78 -69 -41 -64 -74 -73 -47 -57 -58 -50 -37 -117 -106 -140 -118 -160 -179 -164 -185 -174 -60 -27 35 35 26 9 -38 -53 -35 -62 -31 -8 -55 -50 -21 -62 -43 -71 -48 -45 -45 -73 -62 -84 -73 -76 -84 -99 -89 -106 -74 -85 -59 -74 -63 -47 3 -33 -34 -42 1 4 5 -12 38 -6 3 18 24 23 44 34 60 30 36 23 41 10 26 -15 -13 -30 -19 -15 0 3 -18 -17 -56 -89 -86 -99 -36 -99 -103 -80 42 116 90 -294 -383 -200 -232 -197 -83 -78 -32 -36 8 -15 22 -7 4 -18 21 -18 11 -20 -6 -36 -16 -63 -62 -108 -85 -77 11 26 42 34 43 3 35 -18 41 -15 8 -34 -4 -19 0 -9 -20 -16 -2 -39 -13 -24 -26 -35 -20 -63 -14 -50 -34 -56 15 0 50 6 42 41 68 28 44 39 92 57 90 52 84 41 100 45 101 82 119 95 111 102 143 107 140 76 89 60 67 53 68 33 54 4 55 28 74 34 30 9 -18 -32 0 -12 -8 -6 -41 27 150 148 81 -320 -248 -90 -60 39 57 80 109 86 116 95 144 117 113 100 115 104 105 88 78 24 64 15 27 -25 -6 -23 70 64 109 110 113 76 79 48 63 44 44 36 65 26 37 49 49 5 32 27 28 42 51 6 43 57 54 61 83 88 74 96 138 112 152 129 141 124 169 148 133 152 154 150 174 133 167 163 171 173 166 150 174 113 125 100 111 94 123 94 93 74 90 60 88 54 76 68 85 49 79 28 22 15 61 23 72 22 62 187 256 228 -151 -165 99 43 69 116 172 187 184 209 210 220 230 228 207 234 242 211 213 191 180 157 132 71 93 62 87 143 199 219 265 262 280 271 260 254 304 252 305 254 300 267 302 273 310 249 309 283 313 295 334 302 367 316 388 328 390 366 401 365 399 383 396 421 400 382 416 393 418 412 410 402 413 359 396 373 363 343 343 342 335 320 329 311 315 323 314 301 292 267 269 228 206 243 206 216 208 236 300 322 283 -64 11 148 110 159 198 232 247 243 285 270 243 259 255 229 265 222 227 194 171 158 169 108 114 84 99 113 152 155 174 164 173 123 143 123 111 103 81 65 88 66 49 47 78 34 59 42 44 32 33 41 41 30 63 47 76 61 113 34 46 63 66 72 62 58 79 71 71 
#avR[uV]
-605 -1452 -485 -1547 -326 -1432 -217 -1308 -109 -1132 0 8 6 25 90 116 138 174 185 211 229 210 230 215 226 240 248 240 247 237 249 222 129 42 19 -13 -12 -46 -45 -90 -78 -102 -101 -143 -136 -156 -152 -187 -188 -176 -141 -97 -70 -87 -55 -96 -24 -275 -430 -372 -773 -350 27 -84 -17 -45 -6 2 19 4 13 9 12 -5 -20 -10 -24 -50 -53 -89 -119 -175 -196 -215 -212 -200 -145 -70 1 56 112 139 141 149 146 144 143 136 138 135 145 136 136 123 123 111 124 110 119 99 107 105 99 88 96 96 103 101 113 132 125 130 131 152 162 132 163 160 170 188 172 171 171 161 181 189 178 192 181 187 193 185 193 165 140 135 112 94 85 82 93 56 94 69 90 57 94 72 72 48 63 40 9 -6 28 32 85 77 114 74 175 93 77 -252 -773 -477 4 151 177 110 170 182 177 157 144 126 143 119 132 92 70 61 39 16 -34 -64 -121 -157 -214 -241 -251 -210 -152 -42 56 132 192 229 254 274 287 290 292 301 305 293 304 290 273 270 257 134 71 21 -12 -25 -37 -35 -32 -33 -26 -42 -20 -27 -25 -38 -26 -22 -22 -31 -41 -40 -17 -28 -3 1 0 22 -3 -11 19 -6 1 -13 -6 -11 -1 -11 -4 2 17 1 -3 0 6 -6 21 2 12 -9 -19 2 -14 -73 -52 -54 8 41 66 58 74 44 76 -116 -426 -436 -410 -49 166 86 89 84 74 76 75 94 84 59 45 59 49 40 14 -22 -61 -83 -144 -206 -242 -256 -285 -275 -238 -174 -98 -51 -9 18 37 58 51 39 56 55 40 29 54 21 48 37 79 72 76 31 39 17 13 -28 -50 -81 -96 -88 -95 -69 -18 -21 -6 6 19 42 51 30 54 45 70 75 67 43 -16 -131 -167 -204 -216 -254 -242 -240 -239 -241 -222 -271 -225 -251 -219 -240 -213 -233 -204 -221 -212 -254 -228 -256 -260 -252 -198 -169 -108 -122 -64 -117 -79 -190 -298 -382 -818 -468 65 68 71 70 122 138 109 103 97 90 82 86 66 68 49 27 11 -50 -64 -121 -154 -193 -210 -213 -160 -111 -31 38 78 126 140 144 161 156 156 142 153 134 163 133 162 159 150 142 148 150 147 134 141 141 137 126 130 122 113 112 159 201 210 198 232 247 256 245 252 264 251 234 240 220 238 131 68 -1 -46 -77 -98 -112 -110 -139 -121 -137 -130 -144 -152 -157 -160 -160 -163 -167 -138 -159 -114 -135 -123 -105 -105 -110 -103 -113 -134 -164 -131 -115 -71 -35 -6 -53 -3 -57 2 -219 -668 -714 -485 -16 60 -69 -5 -33 -4 -25 -28 -44 -39 -30 -56 -64 -79 -80 -113 -141 -152 -187 -230 -270 -293 -315 -316 -299 -230 -176 -96 -20 51 67 84 95 109 114 132 130 124 122 128 115 133 133 128 122 133 129 130 127 118 119 116 135 173 191 207 189 219 224 219 209 236 241 244 215 227 227 221 173 85 8 -16 -45 -81 -104 -114 -153 -122 -114 -157 -131 -134 -143 -122 -113 -114 -112 -106 -90 -94 -101 -88 -66 -99 -58 -118 -154 -111 -91 -7 -29 -4 -51 22 -7 -71 -417 -847 -595 -152 49 26 -57 -34 -41 -27 -35 -40 -78 -40 -68 -63 -93 -103 -151 -165 -196 -227 -289 -324 -359 -362 -366 -348 -320 -256 -185 -124 -77 -66 -64 -51 -61 -58 -51 -36 -67 -59 -63 -67 -53 -69 -79 -78 -85 -78 -62 -64 -70 -75 -94 -74 -77 -83 -86 -70 -88 -60 -51 -65 -77 -66 -81 -85 -75 -45 -47 -44 -55 -61 -55 -47 -68 -40 -44 -22 29 80 120 135 160 167 172 209 212 223 238 233 247 238 243 214 140 27 -55 -82 -75 -67 -31 -13 -77 -44 -69 -43 -158 -579 -886 -706 -149 -11 -78 -101 -130 -90 -110 -114 -121 -119 -125 -157 -206 -227 -263 -286 -334 -320 -358 -403 -443 -447 -456 -482 -440 -410 -335 -267 -186 -123 -116 -50 -2 -13 -29 -34 -48 -27 -31 -42 -54 -50 -60 -57 -57 -73 -89 -75 -65 -64 -91 -84 -91 -77 -101 -107 -88 -68 -72 -56 -49 -29 -58 -65 -67 -75 -45 -13 14 43 52 92 100 71 53 67 19 43 44 63 110 140 155 186 178 192 219 206 240 236 238 236 251 239 223 236 113 50 0 -67 -90 -130 -162 -193 -167 -155 -169 -140 -198 -125 -134 -97 -203 -590 -968 -832 -230 -62 -129 -133 -132 -131 -140 -132 -115 -98 -82 -68 -97 -84 -112 -106 -92 -126 -140 -185 -239 -231 -288 -259 -258 -206 -100 -70 1 62 82 118 133 131 136 127 107 120 132 106 96 103 97 78 75 54 71 70 71 75 77 85 68 84 81 93 112 103 91 94 105 118 130 142 118 166 151 164 155 171 161 175 214 199 171 199 191 186 194 193 186 188 182 196 201 186 164 159 130 144 180 134 111 115 88 81 64 8 -19 -23 3 23 49 74 55 108 80 65 -83 -586 -753 -343 130 159 85 101 81 104 101 136 188 207 226 224 224 223 208 190 182 158 108 74 19 -115 -199 -229 -257 -219 -171 -124 -95 -71 -69 -44 -65 -60 -87 -64 -90 -81 -60 -105 -119 -110 -103 -89 -99 -75 -53 -77 -72 -61 -52 -44 -48 -54 -43 -37 -20 -5 -24 -11 0 0 24 6 13 11 9 25 43 24 20 34 31 23 54 72 33 61 41 48 54 25 13 36 18 2 -18 5 43 4 -41 -32 -17 -52 -78 -72 -94 -121 -112 -70 -7 0 0 16 3 15 10 -213 -711 -796 -389 20 136 26 32 33 44 46 45 62 43 37 22 52 80 40 40 29 18 -9 -37 -66 -106 -93 -80 -80 -38 39 81 141 178 189 179 200 209 188 181 192 182 174 160 145 130 149 166 229 238 272 284 288 350 367 345 390 359 394 397 387 359 274 236 161 125 105 81 102 77 66 57 44 59 71 74 84 78 82 47 68 55 20 45 43 24 21 21 0 2 16 24 39 15 18 14 51 27 10 2 -15 -7 14 -2 54 89 114 138 154 120 141 -114 -597 -685 -249 172 194 102 123 114 83 123 89 91 82 62 68 47 28 24 7 -52 -50 -100 -147 -162 -209 -210 -239 -199 -117 -59 7 58 107 112 126 120 126 126 138 138 126 140 106 92 97 104 98 85 116 145 102 114 117 133 152 139 153 171 182 169 180 173 184 188 175 208 228 223 206 201 204 219 194 172 167 177 164 157 133 143 84 67 41 24 48 22 28 37 10 26 33 0 1 -4 -13 16 -52 -92 -50 -55 -18 47 59 42 63 69 96 -15 -457 -845 -516 -3 122 82 23 63 94 53 46 42 32 44 46 71 79 75 82 98 73 77 74 33 20 18 -30 12 66 36 6 16 23 19 29 18 13 3 -12 -31 -34 -27 -22 -20 -22 -25 -32 -30 -28 -10 -23 -43 -23 0 12 10 1 -2 7 3 4 0 12 18 12 19 31 28 36 24 23 14 12 27 34 36 21 30 38 53 59 59 47 55 51 57 63 54 32 20 19 28 15 0 16 34 64 73 82 171 213 172 191 232 265 336 366 368 361 431 388 310 -12 -581 -512 -92 127 50 -72 -51 -81 -90 -148 -166 -193 -214 -205 -244 -234 -235 -256 -287 -308 -322 -361 -393 -424 -451 -440 -435 -418 -327 -222 -115 -52 -16 32 52 79 81 88 107 104 124 101 103 122 126 127 143 132 139 122 114 147 164 152 180 190 195 192 202 201 217 208 193 186 201 205 188 170 165 150 137 120 123 112 120 118 109 128 113 113 108 111 162 112 103 94 106 123 116 141 144 123 159 120 106 95 51 53 86 117 172 180 167 188 196 212 50 -455 -687 -306 126 213 122 76 65 64 45 36 41 0 3 1 14 24 51 47 52 27 -2 -13 -50 -83 -104 -106 -85 -26 36 99 155 135 65 35 7 -12 -18 -36 -30 -55 -59 -56 -68 -84 -89 -79 -87 -112 -102 -87 -78 -109 -75 -64 -69 -64 -51 -87 -74 -84 -65 -92 -76 -73 -82 -73 -74 -76 -68 -78 -66 -63 -74 -89 -69 -92 -66 -88 -81 -100 -46 -85 -80 -72 -62 -55 -61 -53 -20 -42 -16 -33 -10 -33 -67 -65 -24 13 51 69 75 50 94 87 -79 -479 -777 -449 79 120 80 79 88 66 79 71 45 38 40 22 31 11 -2 -64 -61 -68 -53 -56 -80 -117 -113 -115 -65 -9 64 141 232 268 297 287 328 327 242 162 102 43 27 -28 -55 -105 -105 -110 -140 -154 -147 -164 -141 -135 -129 -133 -96 -110 -123 -142 -124 -152 -140 -146 -140 -150 -146 -169 -145 -157 -174 -161 -144 -150 -133 -154 -120 -146 -113 -127 -118 -123 -114 -118 -106 -93 -96 -112 -76 -90 -86 -79 -71 -74 -56 -64 -61 -72 -66 -130 -127 -101 -61 -22 7 8 10 1 41 -38 -234 -520 -778 -335 88 31 30 16 47 17 43 6 -1 -26 -29 -56 -57 -72 -92 -116 -114 -159 -206 -245 -259 -289 -263 -225 -128 -17 82 169 254 304 341 356 400 420 428 412 430 418 420 428 423 409 422 418 322 239 196 132 115 102 71 65 54 48 55 21 10 20 9 11 -23 -33 -18 -10 -11 -9 -14 -15 -4 -15 -24 -17 -32 -25 -10 -13 -10 14 18 18 21 25 43 22 25 33 35 37 33 40 54 46 35 51 13 -13 21 10 59 83 94 85 90 58 87 -130 -563 -589 -402 -12 129 24 61 69 84 54 55 32 34 41 8 8 10 -10 -39 -50 -80 -140 -151 -205 -235 -240 -218 -201 -148 -83 -27 17 58 67 85 78 104 94 108 94 106 85 117 78 104 97 118 105 127 108 136 113 125 96 139 111 150 135 160 158 168 167 171 182 214 207 267 314 353 366 423 395 430 416 468 440 465 476 493 514 501 455 348 291 274 253 229 176 192 128 93 119 133 185 220 187 200 198 198 64 -119 -368 -581 -180 202 171 140 136 147 142 117 97 120 91 71 67 59 39 31 33 54 43 33 23 -19 -30 -34 -10 44 112 202 248 320 349 367 313 266 217 200 139 149 119 117 92 78 83 71 70 58 49 64 52 59 28 32 22 23 23 31 17 23 23 14 16 10 8 3 -6 -4 -17 
#avL[uV]
-2337 -3392 -1875 -2895 -1450 -2469 -996 -1988 -527 -1640 -71 -98 -75 -63 -89 -107 -76 -111 -92 -122 -113 -116 -129 -106 -107 -129 -98 -104 -98 -113 -88 -102 -33 6 27 18 56 48 63 53 43 40 37 30 37 9 57 60 73 49 37 -5 -8 0 -22 12 -99 -21 42 39 525 256 16 72 -35 -41 -51 -73 -77 -66 -44 -43 -31 -20 0 -16 13 29 44 81 115 142 174 177 191 180 123 46 15 -35 -73 -116 -93 -133 -116 -128 -123 -143 -136 -135 -150 -165 -128 -144 -160 -144 -151 -159 -151 -158 -174 -168 -129 -161 -171 -163 -176 -163 -151 -178 -129 -154 -123 -132 -131 -124 -131 -122 -107 -139 -108 -108 -114 -94 -135 -131 -98 -126 -109 -121 -93 -83 -102 -85 -83 -106 -102 -110 -115 -126 -107 -138 -131 -141 -143 -157 -166 -170 -144 -164 -179 -149 -121 -127 -109 -141 -134 -175 -114 -186 -158 -202 -254 -31 354 398 132 -35 -31 -65 -109 -149 -118 -133 -81 -112 -103 -100 -68 -92 -45 -12 -17 29 68 81 118 162 165 177 177 95 54 -27 -133 -161 -192 -219 -237 -238 -259 -258 -255 -274 -268 -264 -267 -257 -256 -258 -254 -193 -179 -151 -123 -115 -111 -99 -82 -82 -81 -93 -92 -97 -82 -84 -60 -89 -69 -68 -48 -52 -50 -28 -32 -35 -15 -56 3 -42 -60 -55 -51 -62 -45 -55 -62 -71 -57 -77 -66 -79 -55 -82 -60 -71 -95 -85 -79 -89 -75 -90 -45 -57 -34 -7 -41 -54 -51 -54 -45 -7 -64 -41 126 337 422 42 -4 53 31 0 1 10 11 -4 33 47 59 47 85 101 92 110 129 146 193 215 260 275 293 230 195 81 43 -15 -42 -60 -62 -82 -58 -87 -79 -79 -54 -81 -85 -78 -82 -91 -42 -66 -39 -46 -42 -46 -24 -7 -1 -13 18 -12 23 -9 -34 -25 -21 -54 -12 -46 -39 -50 -19 -35 -45 -76 -42 -60 -24 18 27 27 46 30 33 27 50 40 60 41 68 24 33 42 38 0 29 25 26 0 20 24 46 66 72 15 31 30 15 71 0 -3 1 81 589 465 90 89 47 24 -28 -20 -6 -29 -39 -32 -17 -15 1 1 3 5 16 53 70 90 119 145 173 172 119 35 -8 -84 -94 -140 -125 -128 -146 -130 -120 -159 -155 -151 -140 -139 -115 -93 -107 -112 -92 -86 -75 -87 -75 -82 -41 -51 -57 -59 -24 -44 -65 -74 -71 -73 -80 -111 -82 -83 -111 -98 -110 -112 -112 -136 -111 -86 -60 -43 8 11 21 19 27 32 7 8 21 11 31 -2 19 7 14 6 27 23 1 7 35 40 50 34 35 22 80 52 84 119 74 35 46 75 50 43 -25 7 254 522 541 171 111 108 58 21 23 14 13 3 3 -16 7 2 36 4 49 90 102 129 161 179 216 225 234 196 124 54 41 9 -44 -52 -29 -35 -26 -38 -30 -38 -26 -5 14 0 9 -23 5 3 -1 7 26 19 20 1 41 12 -3 -32 -48 -59 -61 -84 -68 -64 -81 -97 -95 -90 -77 -99 -85 -76 -30 -2 11 17 47 47 71 61 37 66 74 77 96 93 97 116 93 100 122 102 129 123 125 136 132 155 149 164 168 135 150 120 150 118 138 84 30 180 542 561 200 65 123 101 98 57 65 43 62 42 85 65 72 58 106 119 148 168 208 249 280 295 338 345 357 289 203 124 105 69 67 64 58 73 71 63 77 108 77 79 92 105 102 89 107 98 86 86 91 85 86 76 69 48 57 49 37 37 16 0 28 15 38 22 28 21 -11 5 4 6 2 -16 -9 -20 -15 -24 -5 -28 -52 -16 -64 -90 -81 -76 -59 -77 -73 -68 -79 -77 -88 -71 -69 -48 28 86 123 119 122 125 69 123 96 98 -6 -40 189 472 582 212 103 146 70 41 11 9 40 20 15 17 6 42 70 56 89 116 108 135 202 234 256 282 323 279 249 175 133 104 70 48 22 33 8 23 35 22 53 41 45 35 32 45 35 31 45 33 8 39 47 14 8 7 -16 9 24 -5 -13 -33 -49 -55 -41 -4 -20 -51 -16 -62 -65 -84 -95 -105 -122 -102 -85 -88 -51 -34 -58 -61 -41 -30 -63 -56 -90 -95 -75 -129 -82 -80 -94 -103 -98 -127 -102 -99 -106 -41 -6 14 2 -3 33 18 76 112 49 18 5 0 -37 13 -139 -180 95 402 534 181 18 26 -47 -30 -71 -83 -47 -42 -41 -38 -11 -2 -12 26 21 12 63 73 126 183 190 245 237 233 189 143 69 3 -36 -38 -41 -68 -44 -59 -78 -81 -70 -57 -66 -73 -93 -101 -81 -82 -73 -85 -93 -90 -83 -86 -86 -80 -96 -81 -109 -107 -76 -87 -97 -93 -89 -109 -64 -69 -47 -67 -32 -58 -87 -59 -55 -58 -63 -51 -53 -51 -46 -66 -45 -45 -77 -29 -30 -67 -40 -65 -55 -63 -71 -48 -50 -72 -64 -83 -76 -30 -20 -39 -13 -23 -28 -53 -64 -67 -92 -90 -150 -132 131 509 309 -54 -26 -27 -60 -59 -52 -47 -52 -102 -102 -68 -86 -86 -62 -54 -30 -52 -2 26 82 180 221 266 292 284 236 158 113 74 45 40 24 54 20 25 46 4 11 48 27 24 14 -13 -20 -13 23 18 -13 -11 -21 -29 -26 -32 -1 -20 10 2 -8 4 4 -1 18 50 37 -1 11 -9 14 73 36 17 40 27 22 30 51 63 11 50 66 16 11 11 16 -9 -19 -12 -15 -32 -50 -54 -30 -11 -19 -47 -37 -51 -17 -7 -16 -6 -41 -63 -63 -43 -84 -177 -49 269 547 415 118 85 63 24 19 2 8 9 19 20 15 39 63 63 52 43 82 66 120 143 171 195 229 244 148 82 36 -28 -71 -91 -96 -84 -105 -114 -101 -83 -82 -97 -95 -85 -73 -76 -81 -99 -141 -144 -161 -168 -156 -171 -198 -146 -146 -138 -177 -176 -153 -136 -80 -43 1 -21 -8 22 29 53 33 18 50 13 23 96 38 31 25 37 16 3 37 12 -6 -4 -2 -35 -33 -19 -34 0 -29 -54 -55 -33 -50 -65 -72 -63 -45 11 -39 -27 -45 -74 -36 -79 -25 -72 -186 -79 208 577 295 -10 15 -22 -30 -52 -65 -79 -63 -43 -62 -38 -7 -19 -19 5 33 71 42 98 138 170 183 171 209 164 114 13 -60 -87 -114 -124 -137 -130 -143 -146 -164 -160 -145 -111 -127 -147 -142 -135 -124 -95 -121 -87 -81 -80 -85 -105 -80 -94 -115 -81 -68 -88 -110 -84 -99 -87 -96 -90 -54 -95 -97 -64 -107 -86 -88 -106 -93 -118 -111 -120 -126 -82 -87 -90 -68 -70 -53 -82 -93 -54 -69 -54 -108 -63 -59 -92 -72 -77 -55 -74 -43 -19 -21 -26 -73 -42 -43 -65 -124 -105 92 500 493 155 41 43 17 -12 -17 -10 -16 -3 -6 1 -18 -10 -25 -26 -20 -23 -30 -8 0 34 62 108 81 33 2 -67 -86 -108 -121 -109 -90 -108 -113 -88 -99 -98 -84 -51 -76 -75 -52 -53 -40 -44 -36 -5 -26 -31 -17 -8 -20 -4 -34 -51 -49 -53 -54 -34 -57 -55 -43 -54 -78 -49 -47 -76 -83 -78 -99 -98 -72 -93 -114 -107 -119 -107 -120 -130 -104 -103 -112 -129 -117 -84 -109 -104 -102 -83 -87 -80 -78 -67 -91 -102 -93 -123 -119 -125 -108 -94 -112 -161 -186 -157 -181 -143 -213 -243 -83 282 542 318 78 123 127 84 65 122 89 97 119 117 99 116 135 166 143 162 181 226 233 274 314 316 309 309 291 205 105 41 1 -9 -35 -37 -41 -23 -35 5 -12 -14 -3 9 -13 -11 -15 -9 -21 -1 -28 1 -28 -21 -15 -27 -43 -12 -28 -35 -35 -43 -52 -42 -64 -65 -74 -54 -91 -49 -79 -76 -57 -72 -65 -61 -87 -63 -98 -83 -83 -79 -70 -122 -61 -77 -98 -85 -74 -36 -88 -56 -31 -63 -54 -27 -21 5 13 35 29 -11 -42 13 -18 -12 -79 -40 220 631 407 38 68 82 58 57 26 29 12 27 55 53 34 35 31 12 4 62 65 106 95 145 175 175 192 174 58 1 -76 -104 -87 -39 11 36 33 55 41 21 69 67 43 80 74 97 76 77 90 106 90 102 109 95 95 109 99 105 99 101 86 88 94 73 34 65 62 68 37 30 35 42 2 42 42 20 27 15 11 14 5 0 15 22 5 23 7 42 37 33 35 19 16 2 30 46 74 79 57 48 -7 36 52 12 -75 -47 171 609 512 110 113 107 23 14 -8 -11 -41 -11 -36 -14 -14 -2 -22 15 23 46 38 54 40 88 105 137 121 90 -4 -52 -102 -141 -166 -151 -170 -150 -194 -109 -87 -25 -18 0 13 34 68 64 57 99 87 92 102 97 83 112 78 86 80 103 59 62 38 65 41 39 23 51 50 42 9 43 12 32 12 35 2 26 -2 -5 -26 -12 -21 -19 -48 -27 -58 -9 -10 -7 -4 3 -11 10 -3 24 -9 9 -19 7 42 57 65 54 11 5 1 0 30 -41 -93 5 199 629 353 23 29 -44 -51 -84 -91 -86 -90 -70 -95 -73 -57 -46 -50 -31 -21 -9 20 84 74 118 124 151 117 81 -43 -89 -167 -210 -237 -228 -237 -236 -257 -247 -239 -242 -258 -230 -242 -249 -241 -215 -233 -181 -141 -129 -104 -62 -84 -78 -73 -73 -86 -94 -66 -77 -114 -89 -120 -85 -89 -84 -122 -105 -95 -107 -107 -110 -123 -88 -116 -106 -115 -124 -118 -107 -138 -94 -102 -85 -96 -92 -104 -83 -86 -74 -86 -62 -86 -67 -81 -69 -89 -43 -53 -31 -21 -41 -88 -64 -97 -62 -75 -184 -127 110 408 325 -68 -96 -64 -118 -164 -183 -165 -185 -173 -182 -193 -175 -159 -181 -177 -139 -135 -103 -65 -42 3 64 50 62 35 -33 -108 -150 -208 -225 -244 -246 -234 -242 -275 -243 -276 -244 -268 -259 -265 -257 -281 -246 -285 -275 -289 -289 -307 -289 -323 -306 -346 -321 -360 -355 -380 -358 -383 -373 -388 -423 -403 -421 -469 -472 -497 -520 -505 -517 -518 -504 -517 -512 -511 -504 -514 -507 -479 -414 -393 -371 -363 -357 -323 -322 -284 -247 -261 -238 -247 -293 -248 -262 -255 -276 -257 -181 -28 339 81 -212 -168 -190 -217 -247 -257 -241 -262 -262 -228 -230 -225 -201 -219 -182 -187 -173 -150 -135 -139 -71 -70 -46 -69 -107 -170 -217 -255 -283 -305 -276 -264 -226 -192 -178 -130 -123 -126 -108 -83 -75 -101 -61 -79 -61 -58 -56 -51 -61 -45 -39 -58 -47 -69 -62 -93 -37 -46 -55 -58 -59 -51 -45 -56 -51 -45 
#avF[uV]
2943 4845 2360 4442 1777 3902 1214 3297 636 2773 72 89 68 38 -1 -9 -62 -63 -92 -88 -115 -93 -101 -108 -118 -110 -149 -136 -149 -123 -160 -119 -95 -49 -46 -5 -43 -2 -17 37 34 61 63 112 98 147 95 126 114 126 104 103 79 87 77 84 123 297 388 333 247 93 -44 12 53 86 58 71 57 62 30 33 19 26 20 27 11 20 9 7 3 32 21 38 21 20 22 23 -17 -21 -38 -22 -48 -16 -30 -15 -20 6 -1 0 4 28 -8 20 36 33 27 48 31 58 66 63 30 73 74 67 72 61 38 45 3 23 -8 -19 -30 -8 -31 -38 -63 -48 -63 -63 -56 -66 -46 -58 -79 -65 -72 -66 -99 -102 -90 -80 -56 -28 -9 15 29 44 13 81 36 72 53 99 71 97 71 115 116 108 111 134 81 109 49 97 0 112 -16 109 177 283 418 78 -136 -116 -146 -45 -60 -32 -59 -24 -62 -14 -39 -19 -64 0 -24 -49 -21 -45 -33 -17 2 -5 48 64 74 115 98 69 77 29 0 -9 -17 -35 -27 -31 -37 -27 -36 -29 -36 -32 -16 -12 -3 58 107 130 136 140 148 134 114 115 108 136 112 125 107 122 86 111 91 99 89 93 68 56 36 34 15 34 0 53 40 61 49 75 52 66 64 83 62 74 49 77 59 82 53 78 73 82 66 98 95 87 59 130 86 62 32 13 -15 -4 -28 -37 -11 158 299 99 -12 6 -162 -139 -120 -85 -76 -87 -86 -89 -117 -107 -105 -106 -134 -141 -106 -87 -67 -63 -48 -9 -18 -19 -8 45 43 92 54 67 52 41 24 24 7 48 23 23 14 51 31 57 33 54 -36 -5 -37 14 2 28 11 36 52 95 78 101 72 79 52 47 27 47 -7 4 -12 19 -34 -9 -24 0 -24 17 41 112 140 176 170 223 208 212 189 201 162 230 157 226 186 198 175 233 175 196 185 255 208 232 213 186 125 154 77 92 49 45 78 193 296 301 228 3 -156 -158 -118 -95 -93 -118 -103 -73 -57 -57 -65 -70 -68 -70 -52 -32 -27 -3 -6 31 34 47 37 40 41 75 40 46 15 14 -15 -16 -15 -25 -35 16 2 17 -22 6 -46 -65 -42 -29 -56 -64 -71 -47 -66 -59 -96 -74 -72 -63 -88 -68 -94 -126 -139 -125 -151 -135 -174 -162 -140 -165 -140 -122 -128 -83 -127 -44 -8 44 37 65 76 93 83 106 113 129 108 132 121 160 140 152 149 160 111 135 112 127 88 65 54 76 67 91 53 111 46 -3 -2 0 -39 -21 -47 14 23 211 414 192 -55 -155 -171 -39 -52 11 -19 11 14 40 36 46 48 61 43 76 63 51 50 57 68 91 76 89 81 102 105 122 55 11 -7 -14 -55 -60 -83 -76 -101 -92 -97 -116 -142 -114 -142 -109 -134 -126 -131 -137 -157 -146 -138 -120 -157 -147 -170 -159 -159 -129 -157 -140 -151 -144 -155 -143 -148 -124 -149 -128 -136 -96 -54 -5 5 27 33 57 43 92 84 48 82 54 37 49 25 -3 20 12 -16 -12 -35 -22 -36 -70 -33 -97 -30 -10 -57 -43 -143 -90 -145 -67 -161 -77 40 236 305 33 -47 -115 -149 -44 -63 -15 -38 -7 -22 35 -44 2 -8 34 -2 32 16 27 18 39 43 64 23 20 -9 30 52 60 19 7 -1 0 -6 -12 -12 -11 -40 -40 -18 -16 -24 -51 -32 -10 -29 -12 -8 -23 -26 -14 -11 17 5 29 26 37 32 50 44 51 37 62 27 58 56 53 56 41 39 48 59 72 57 89 56 68 28 0 -28 -103 -71 -69 -85 -96 -149 -135 -150 -170 -153 -169 -149 -171 -144 -92 -56 -30 -41 -43 -55 -94 -56 -46 -52 -29 49 198 390 414 124 -62 -92 -67 30 88 78 101 73 100 104 108 151 163 157 207 197 217 211 222 201 209 190 173 159 160 160 160 134 82 52 67 28 -31 5 5 0 25 -26 -9 -3 18 17 15 22 25 28 55 66 25 16 76 75 84 94 91 83 93 82 106 105 105 71 63 86 119 92 107 79 69 52 53 29 2 14 35 -15 15 15 16 -21 -79 -76 -99 -95 -82 -117 -90 -123 -160 -142 -135 -138 -123 -137 -123 -130 -71 -44 -14 65 93 97 143 117 54 106 150 135 199 162 121 237 384 495 565 297 48 43 103 180 162 202 223 180 157 139 121 79 99 96 85 84 79 62 66 59 56 40 42 21 24 16 -42 0 -4 -26 -43 -76 -64 -87 -77 -49 -25 -49 -75 -40 -23 -9 4 2 6 18 13 23 19 8 9 0 11 11 0 15 -4 -27 -3 2 -11 -28 -21 -78 -48 -119 -83 -131 -96 -84 -102 -120 -155 -135 -120 -145 -139 -140 -127 -148 -141 -110 -153 -165 -134 -145 -98 -104 -66 -72 -131 -84 -39 -51 -5 -5 -33 12 58 36 19 4 3 -9 11 -16 9 84 215 454 244 34 -75 -133 -57 -41 -21 -52 -54 -83 -86 -104 -157 -138 -138 -160 -154 -160 -130 -155 -134 -157 -200 -106 -67 -63 -27 -16 12 10 20 26 29 20 10 39 62 17 85 69 12 78 94 96 116 109 112 51 34 91 84 82 81 71 81 55 64 26 18 14 20 6 1 -18 -75 -43 -12 -22 0 -40 -117 -60 -38 -75 -58 -46 -84 -124 -97 -72 -92 -114 -71 -37 -24 -52 -8 16 30 10 -11 45 95 63 29 72 125 110 146 139 119 87 14 41 63 46 39 68 166 263 442 249 -26 -138 -221 -90 -56 -53 -46 -54 -54 -82 -64 -53 -62 -115 -144 -93 -84 -111 -84 -111 -105 -104 -89 -135 -163 -67 -43 -75 -52 -69 -87 -93 -94 -95 -95 -86 -97 -109 -85 -79 -74 -71 -53 -68 -66 -87 -94 -111 -115 -132 -179 -168 -199 -243 -221 -217 -221 -233 -223 -194 -193 -162 -103 -96 -103 -131 -130 -100 -76 -94 -73 -95 -171 -123 -109 -108 -84 -85 -59 -57 -57 -37 -19 -19 14 33 17 17 -25 -10 39 36 18 0 37 62 61 61 -4 25 29 -9 -14 -78 -58 -129 -47 44 193 389 108 -46 -161 -210 -80 -93 -62 -17 -43 -26 -47 -19 -23 -61 -27 -9 -30 -41 -18 8 1 9 -7 25 39 29 34 2 46 53 29 6 11 11 10 16 19 25 21 18 -28 21 55 44 31 25 10 4 -58 -20 -34 -31 -27 -72 -44 -37 -89 -114 -81 -69 -88 -85 -101 -78 -118 -173 -128 -109 -136 -96 -132 -106 -66 -73 -58 -53 -37 -6 -61 3 22 26 46 5 60 64 17 59 27 75 62 57 97 86 60 108 167 94 74 39 -20 14 0 -20 -3 27 120 365 344 23 -151 -164 -125 -40 -51 -77 -42 -29 -38 -25 -45 -27 -60 -53 -49 -61 -74 -43 -69 -74 -68 -82 -126 -51 -45 -69 30 79 92 98 89 61 89 100 84 112 129 118 79 99 95 75 79 72 75 65 15 50 75 40 7 7 -6 32 54 41 49 50 35 44 36 30 34 46 21 10 51 60 64 87 71 37 57 92 76 80 54 60 70 57 48 60 71 54 30 76 84 83 55 72 80 62 33 27 29 11 -47 -93 -46 -82 -137 -152 -175 -180 -210 -179 -287 -175 -66 95 299 -30 -225 -205 -174 -55 -33 15 -31 58 69 73 96 105 127 98 69 112 125 126 95 128 118 110 135 130 126 126 122 116 73 51 25 2 -15 -38 -57 -53 -113 -92 -110 -98 -113 -109 -115 -112 -133 -110 -138 -93 -116 -119 -142 -137 -153 -146 -182 -163 -166 -165 -173 -155 -151 -122 -136 -130 -133 -79 -116 -71 -61 -62 -51 -47 -58 -30 -46 -30 -30 -29 -28 -41 -39 -50 -26 4 -21 -49 -79 -53 -88 -91 -95 -65 -79 -73 -56 -67 -121 -147 -161 -137 -181 -169 -183 -133 -10 234 56 -100 -164 -282 -205 -135 -122 -90 -74 -49 -69 -56 -56 -36 -50 -55 -63 -51 -114 -93 -104 -81 -95 -92 -71 -85 -88 -32 -38 -23 -51 -47 -25 -46 -43 -20 -37 -5 9 -14 -7 12 -12 10 -8 3 10 22 -3 -3 -24 0 -19 -30 -39 -34 -54 -12 -26 -1 -23 -1 2 39 16 11 5 39 37 43 24 60 32 47 48 64 50 77 66 95 46 70 58 67 39 47 18 16 -13 6 -3 17 7 3 20 -9 -55 -71 -100 -62 -112 -102 -107 -11 127 307 167 -62 -189 -234 -188 -102 -103 -57 -67 -29 -34 -2 -26 -8 -29 10 -12 41 15 29 -1 15 -7 11 -24 -6 -25 13 -12 -38 -90 -101 -146 -117 -178 -132 -132 -75 -77 -25 -27 14 20 37 40 52 40 67 55 62 44 52 17 55 10 29 19 83 61 114 75 104 101 126 94 118 102 148 130 148 111 138 97 152 94 149 118 153 131 144 134 166 133 152 105 123 84 95 83 91 60 78 31 73 51 92 58 87 70 36 6 11 -13 -10 -10 -32 0 131 228 321 148 -18 -112 -60 13 34 36 73 43 83 72 121 102 113 104 122 124 137 123 139 121 170 141 165 112 108 46 61 7 -2 -44 -67 -113 -118 -163 -162 -181 -172 -188 -159 -190 -186 -174 -168 -206 -185 -140 -98 -66 -27 -53 -18 7 8 18 38 38 45 67 93 80 108 108 122 102 132 116 104 121 123 115 138 112 133 138 141 135 131 117 124 75 84 64 70 49 81 58 53 38 49 29 46 13 34 33 38 29 66 10 11 -18 4 -29 11 -28 17 97 257 453 181 77 81 -32 39 56 94 98 111 129 141 148 152 166 151 171 187 178 185 184 205 194 202 171 189 155 166 181 191 178 190 167 176 160 155 138 181 135 182 137 182 141 187 153 184 127 179 148 181 153 193 164 227 167 235 171 224 194 221 189 215 202 206 208 196 153 155 118 130 97 109 86 102 35 76 47 34 10 0 5 24 66 101 96 109 128 147 130 155 153 142 104 62 72 61 62 56 77 193 301 397 242 99 10 -2 49 80 100 114 124 165 142 136 158 157 142 179 150 153 118 106 102 115 90 100 80 79 63 58 15 6 -36 -44 -90 -48 -40 -25 -22 -8 -25 6 -9 -9 -3 17 -9 9 2 8 -7 -1 1 17 6 36 23 45 30 76 13 23 40 41 49 43 42 63 55 62 
