ADC Sampling rate (Hz):
100
Fragment duration (sec):
20
Number of samples exported by each lead:
1999

#I[uV]
-2829 -2808 -2263 -2238 -1671 -1667 -1076 -1022 -501 -456 147 169 210 235 265 314 310 283 265 200 150 102 69 27 37 39 33 8 29 25 17 38 24 56 23 -2 81 74 57 64 42 36 53 30 26 43 52 39 10 5 36 4 -9 15 7 -1 17 -17 -23 16 -11 -23 -22 -25 11 -33 -36 10 -21 -6 -10 -32 0 -10 15 7 47 72 55 63 20 -11 -12 26 -18 -16 36 280 794 576 80 -21 1 9 -72 -21 -22 -14 38 10 -2 7 39 20 57 136 133 153 198 250 316 335 347 325 272 230 216 162 102 79 82 117 76 58 117 82 70 98 81 132 116 118 126 125 119 108 119 119 123 110 122 124 93 110 111 91 130 98 137 134 98 97 92 118 91 74 96 82 109 80 74 102 73 79 84 61 56 64 69 65 71 46 68 62 49 28 53 77 48 54 69 69 127 135 112 119 70 33 33 50 25 89 103 275 862 675 116 61 34 54 19 -4 6 49 63 42 60 59 64 82 93 133 142 171 235 238 313 315 301 290 220 207 148 83 53 -14 -39 12 20 -28 -33 7 -4 -47 -39 -25 9 -17 -23 -1 -18 -19 -31 -33 -36 -40 -46 -39 -20 -25 -36 -19 -38 -48 -41 -7 -31 -50 -42 -33 -23 -26 -26 -16 -33 -18 -35 -10 -3 -31 -35 -24 -28 -17 -6 -14 -15 2 0 19 0 -25 12 16 7 5 39 39 37 90 147 160 149 84 118 143 95 182 77 289 520 519 702 283 83 143 115 141 96 83 115 122 108 152 171 137 158 174 202 214 260 327 357 388 422 388 395 329 307 259 195 146 109 138 115 66 81 77 84 114 90 93 108 116 99 97 105 100 117 79 74 82 86 86 76 48 65 92 83 62 49 59 35 69 67 55 41 58 39 69 72 25 56 68 64 47 68 59 42 66 55 69 94 83 123 151 118 142 156 115 95 123 92 117 115 369 780 652 280 91 65 130 131 121 118 127 139 142 164 163 182 184 174 236 245 279 335 366 402 417 398 415 411 334 264 242 177 144 134 133 128 126 109 113 126 118 112 137 150 122 149 175 160 135 124 128 148 124 110 76 137 113 107 117 88 90 89 81 97 75 75 60 103 79 68 76 67 61 65 30 45 74 33 35 66 44 43 78 58 34 70 81 76 102 94 61 51 23 10 43 24 0 58 421 815 523 100 -31 -31 19 -15 -17 -8 -39 -20 -13 -29 -2 9 23 38 50 78 134 146 186 256 235 255 269 179 144 72 39 -5 -73 -47 -23 -52 -60 -80 -85 -58 -49 -41 -63 -48 -30 -70 -56 -56 -67 -57 -56 -45 -78 -66 -51 -106 -109 -64 -71 -104 -64 -104 -106 -68 -86 -104 -86 -67 -94 -89 -95 -106 -88 -77 -101 -110 -90 -91 -82 -70 -88 -89 -94 -83 -92 -88 -56 -61 -54 -45 -35 26 -15 -40 -58 -88 -72 -102 -59 -113 -11 356 673 538 -32 -111 -66 -99 -83 -112 -87 -115 -99 -93 -80 -75 -69 -58 -46 -11 15 45 118 188 214 206 209 192 160 136 62 23 -50 -61 -70 -89 -91 -120 -123 -100 -58 -68 -94 -103 -67 -73 -88 -85 -95 -42 -54 -101 -69 -95 -86 -113 -79 -67 -115 -72 -103 -83 -94 -83 -96 -94 -86 -105 -106 -91 -126 -112 -106 -101 -112 -136 -124 -132 -129 -109 -123 -104 -137 -129 -128 -125 -143 -136 -107 -147 -148 -108 -120 -129 -88 -74 -52 -55 -106 -128 -124 -148 -126 -143 -176 62 474 676 259 -156 -187 -130 -90 -121 -107 -85 -123 -83 -62 -76 -43 -50 -39 23 49 61 108 197 222 301 293 279 302 273 221 134 110 93 48 76 81 44 9 49 53 49 62 49 93 69 72 78 89 80 70 43 52 94 44 23 34 55 24 23 39 13 16 40 34 44 13 38 59 19 24 32 2 20 72 44 -3 31 59 16 30 23 63 102 94 127 77 46 32 14 20 31 -5 -19 281 698 707 216 -36 -58 -3 31 -18 25 -20 6 -13 -26 42 14 25 43 51 68 105 146 191 213 228 264 238 238 176 77 14 -13 -50 -40 -64 -80 -101 -99 -79 -125 -112 -115 -116 -111 -92 -89 -128 -101 -102 -94 -108 -145 -114 -135 -134 -142 -159 -159 -161 -135 -161 -180 -162 -164 -181 -177 -184 -181 -181 -170 -170 -161 -184 -186 -157 -212 -216 -171 -191 -183 -162 -201 -175 -187 -199 -195 -184 -202 -188 -94 -142 -173 -153 -191 -215 -231 -197 -268 -239 151 575 473 -46 -283 -221 -212 -247 -211 -236 -208 -218 -206 -178 -185 -182 -158 -119 -146 -100 -78 -40 29 66 46 100 97 38 0 -45 -111 -146 -176 -200 -199 -195 -237 -201 -186 -256 -219 -184 -211 -188 -178 -191 -181 -150 -145 -182 -169 -166 -175 -184 -169 -174 -168 -148 -193 -183 -179 -167 -163 -167 -183 -156 -165 -162 -155 -187 -165 -200 -221 -129 -145 -141 -158 -180 -138 -162 -142 -173 -119 -150 -157 -125 -155 -125 -138 -132 -159 -152 -141 -129 -140 -104 -155 -64 -122 -76 -98 -105 -117 -136 -107 -198 -47 236 268 533 28 -212 -133 -201 -152 -210 -220 -188 -191 -185 -244 -143 -212 -160 -169 -122 -109 -34 -58 17 -19 103 87 84 41 18 -41 -104 -136 -171 -197 -190 -190 -188 -235 -178 -209 -202 -195 -183 -181 -180 -205 -190 -208 -177 -184 -196 -232 -214 -200 -220 -228 -222 -212 -226 -244 -221 -198 -186 -204 -238 -230 -219 -214 -224 -210 -195 -215 -218 -245 -225 -211 -191 -213 -204 -216 -195 -219 -219 -190 -207 -206 -198 -181 -181 -202 -206 -183 -150 -134 -136 -125 -131 -206 -191 -185 -236 -200 -228 -62 347 584 272 -196 -245 -196 -181 -199 -184 -163 -176 -148 -146 -122 -135 -122 -68 -71 -30 16 35 55 150 177 178 211 161 140 117 37 -11 -60 -82 -93 -93 -85 -108 -110 -116 -108 -81 -99 -68 -60 -63 -52 -106 -62 -44 -77 -46 -77 -79 -44 -64 -76 -64 -77 -54 -81 -68 -68 -107 -68 -46 -62 -50 -58 -73 -74 -31 -64 -71 -40 -76 -63 -44 -53 -21 -32 -51 -29 2 9 11 -59 -66 -55 -74 -41 -118 32 367 612 542 58 -124 -78 -47 -68 -84 -52 -58 -29 -32 -36 -29 -5 -7 22 65 56 87 139 204 250 247 253 279 234 161 108 51 21 2 -31 -30 -19 -34 -47 -30 -31 -15 -24 -18 13 -14 8 35 19 46 44 14 5 -4 30 10 27 5 13 7 17 -6 3 15 -6 -30 -12 0 5 -27 -4 -11 -28 -15 -5 -23 -46 -35 -22 -49 -10 -42 -49 -42 -42 -57 -56 -34 -73 -41 -21 -33 -48 -30 -21 -41 -39 -24 6 54 37 -1 -47 -46 -32 -58 -34 -85 159 509 551 480 68 -68 -24 -72 -79 -71 -88 -93 -88 -77 -98 -73 -61 -38 -48 -7 26 50 92 130 175 200 178 220 169 122 52 1 -63 -48 -77 -77 -104 -91 -91 -89 -97 -78 -100 -72 -93 -61 -84 -64 -97 -69 -41 -85 -83 -53 -75 -54 -75 -64 -41 -72 -28 -48 -29 -20 -33 0 -37 -12 -13 -39 -28 -61 -26 -24 -61 -45 -50 -29 -53 -56 -30 -74 -68 -57 -67 -39 -39 -58 -63 -57 -63 -33 -36 -83 -31 -53 -36 -21 -34 -17 6 28 24 33 -23 -30 -2 -39 32 -47 40 259 464 821 389 -8 23 31 26 0 -1 -6 9 21 46 67 29 88 96 90 158 188 221 270 300 359 380 350 381 302 232 205 130 86 117 69 36 46 20 67 44 59 70 59 62 79 74 54 45 102 67 51 77 76 43 58 65 51 45 25 47 70 53 50 63 76 85 107 109 71 78 88 88 116 92 73 99 102 103 108 63 92 96 50 146 109 104 141 98 119 166 157 184 193 150 113 135 110 136 105 86 211 583 906 537 81 57 74 115 109 113 121 114 105 110 145 118 107 152 193 158 183 251 306 319 340 392 395 376 323 286 232 162 133 86 86 68 69 75 103 96 70 83 102 107 103 131 125 104 85 138 106 78 100 95 122 94 71 81 76 94 115 96 59 103 95 66 82 87 75 79 55 67 52 53 42 35 61 57 77 89 122 96 83 67 17 51 -5 63 1 22 331 742 733 176 -18 -9 14 81 29 24 12 41 42 32 62 66 103 92 93 149 181 217 249 297 323 351 335 283 255 214 151 73 75 49 30 63 37 14 30 21 38 40 34 84 28 45 36 12 51 39 13 18 23 41 19 -1 8 -2 -13 -6 -3 -8 0 14 -12 -23 0 6 -7 -36 -26 6 -18 -30 -33 -29 0 -27 -31 -57 -32 -12 -33 -25 -42 -50 -16 -10 -10 -34 -23 -8 -11 -26 -16 14 18 37 38 7 4 -34 -45 -27 -84 -74 32 472 793 449 25 -116 -55 -66 -40 -54 -41 -81 -88 -34 -14 -53 -49 -8 0 6 51 81 82 175 171 207 228 202 193 118 50 24 -13 -59 -74 -57 -71 -77 -94 -82 -80 -79 -39 -68 -68 -60 -68 -63 -38 -40 -58 -52 -60 -45 -66 -66 -52 -84 -90 -61 -37 -65 -75 -68 -68 -87 -79 -57 -77 -78 -86 -72 -101 -114 -70 -98 -125 -91 -114 -129 -126 -86 -85 -111 -90 -96 -96 -89 -90 -107 -93 -103 -99 -114 -90 -109 -111 -63 -95 -94 -84 -53 -81 -70 -25 -19 -14 -7 -40 -50 -76 -90 -92 -115 -140 -21 395 790 465 -34 -152 -113 -89 -143 -87 -123 -99 -94 -99 -81 -82 -53 -57 -51 -1 29 47 86 130 178 185 219 224 177 107 74 4 -39 -79 -91 -79 -95 -120 -115 -134 -119 -100 -120 -101 -72 -106 -108 -64 -80 -80 -52 -91 -76 -77 -74 -65 -89 -91 -101 -97 -69 -72 -68 -62 -66 -84 -82 -74 -55 -95 -67 -60 -61 -65 -93 -59 -53 -85 -80 -74 -54 -54 -55 -79 -63 -40 -16 -49 -31 -2 -2 43 38 31 -27 -14 -25 -14 -42 -113 -14 284 718 546 99 -82 -72 10 -21 -8 -46 2 20 -26 -41 -22 5 18 24 38 79 104 134 176 198 225 283 243 223 190 119 47 38 -10 -60 -37 -48 -49 -68 -101 -36 -44 -56 -88 -61 -52 -60 -42 -58 -19 -44 -93 -73 -53 -52 -67 -51 -69 -46 -78 -98 -69 -81 -80 -66 -76 -53 -83 -77 -99 -84 -98 -72 -84 -85 -67 -101 
#II[uV]
-2226 198 -1785 613 -1374 1019 -931 1512 -483 1959 -16 8 18 45 41 76 44 44 29 29 -42 -42 -84 -119 -128 -115 -150 -137 -151 -119 -133 -112 -126 -78 -112 -123 -66 -52 -85 -78 -100 -98 -114 -125 -143 -103 -141 -165 -185 -173 -184 -182 -205 -158 -191 -185 -195 -178 -210 -191 -219 -182 -225 -211 -194 -190 -223 -195 -222 -184 -239 -213 -216 -133 -139 -139 -87 -73 -140 -112 -171 -175 -202 -158 -217 -67 94 381 646 309 -207 -340 -268 -211 -230 -200 -199 -166 -154 -175 -214 -184 -171 -173 -144 -98 -97 -83 -54 -6 59 -6 55 3 14 -43 -59 -103 -150 -202 -196 -184 -211 -249 -202 -215 -192 -192 -148 -159 -135 -114 -102 -92 -96 -109 -121 -120 -120 -122 -122 -101 -128 -137 -150 -148 -135 -142 -129 -138 -134 -123 -156 -117 -155 -162 -159 -158 -171 -149 -178 -135 -150 -192 -172 -178 -194 -163 -192 -163 -160 -172 -165 -165 -155 -189 -178 -138 -164 -124 -108 -110 -42 -68 -93 -99 -130 -146 -154 -144 -177 28 136 346 737 329 -239 -267 -232 -143 -141 -162 -133 -77 -83 -72 -77 -66 -98 -42 -60 -37 -33 0 21 43 95 84 80 76 8 37 -32 -80 -130 -185 -224 -185 -191 -205 -228 -194 -206 -168 -183 -140 -137 -152 -170 -144 -174 -143 -185 -152 -171 -166 -207 -181 -201 -174 -196 -162 -188 -172 -188 -146 -177 -164 -194 -183 -185 -209 -224 -180 -215 -187 -215 -192 -206 -194 -221 -226 -221 -210 -202 -212 -247 -218 -229 -201 -199 -215 -195 -212 -212 -169 -160 -117 -119 -39 -30 -31 -65 -84 -79 -62 -98 -13 -40 330 558 394 438 118 -166 -71 -74 0 -45 -34 -50 17 -42 37 -14 24 9 27 42 84 82 123 115 167 166 188 127 164 120 106 67 40 -6 -14 -26 -47 -80 -69 -41 -4 -13 17 -6 23 12 10 9 10 3 -20 -3 -40 -16 -1 -43 -14 -27 -13 -11 1 -37 -46 -59 -11 -47 -55 -67 -54 -65 -95 -113 -56 -106 -34 -107 -81 -91 -78 -110 -55 -108 -47 -47 -60 -32 34 -57 -19 -76 -55 -156 -15 -127 -10 68 421 807 447 41 -137 -219 -58 -84 -10 -77 -8 -26 6 -11 35 -2 4 16 77 74 108 115 143 139 156 130 141 136 114 51 63 12 -8 -45 -46 -76 -51 -100 -84 -72 -59 -64 -23 -37 -37 -37 -3 -12 10 -47 -15 -12 -5 -28 12 -51 -25 -48 10 -17 4 -22 -8 -19 5 -26 -14 2 -10 -33 -10 -52 -3 -42 -52 -44 -28 -45 -46 -58 -37 -72 -31 -35 -23 13 -3 25 40 -31 -41 -68 -74 -104 -74 -128 2 168 565 730 305 -117 -265 -208 -67 -93 -102 -71 -75 -57 -26 -61 -14 -28 23 -6 17 34 113 97 131 170 158 172 192 120 96 34 6 -63 -92 -105 -84 -112 -108 -131 -133 -117 -151 -124 -85 -96 -73 -76 -64 -76 -69 -83 -82 -95 -113 -103 -89 -136 -122 -96 -96 -118 -63 -110 -76 -88 -110 -88 -70 -76 -67 -89 -90 -113 -89 -90 -92 -106 -122 -98 -76 -78 -118 -111 -119 -112 -96 -99 -70 -60 -52 -42 0 17 -45 -71 -84 -119 -134 -153 -98 -78 94 552 707 307 -288 -342 -196 -161 -90 -108 -88 -99 -120 -90 -60 -59 -30 -51 -20 -39 -2 39 102 157 179 155 144 130 124 110 69 9 -56 -54 -72 -97 -78 -150 -125 -125 -104 -107 -100 -123 -139 -137 -99 -92 -109 -96 -56 -132 -81 -109 -151 -103 -94 -160 -122 -116 -108 -101 -94 -111 -139 -115 -115 -123 -113 -102 -108 -151 -124 -107 -133 -121 -122 -132 -112 -158 -135 -103 -160 -129 -140 -132 -138 -180 -125 -164 -161 -158 -142 -108 -86 -50 -57 -95 -152 -184 -168 -208 -193 -158 -92 219 665 481 90 -206 -327 -210 -167 -133 -109 -95 -92 -94 -76 -76 -25 -36 -18 29 0 14 40 123 161 184 189 177 179 165 162 127 108 64 33 -11 -17 -27 -83 -7 15 -13 23 12 52 39 63 29 -29 51 53 39 40 24 22 -40 -17 41 9 19 31 17 27 58 51 62 63 87 31 53 80 68 62 93 114 24 55 93 107 82 112 143 132 120 131 193 145 84 94 30 42 15 71 202 545 961 668 118 -75 -111 4 88 57 32 76 132 83 39 125 124 132 156 153 189 236 245 308 309 241 313 356 316 237 233 234 175 177 153 88 111 135 123 114 46 116 134 112 89 118 145 116 133 140 139 119 79 105 61 66 65 18 56 42 19 48 9 45 45 44 56 -26 -12 22 30 32 36 30 39 79 37 31 78 -5 4 66 54 65 52 74 64 88 80 64 169 119 43 68 69 -50 -18 15 44 242 622 915 514 0 -171 -134 16 -23 25 6 30 39 29 78 72 -4 83 116 118 121 140 192 213 262 274 290 300 275 258 248 179 157 131 81 92 92 61 102 104 64 108 114 72 110 146 147 157 156 186 148 170 159 147 115 129 128 127 111 96 87 82 69 112 110 122 60 97 102 119 89 129 86 76 125 118 94 137 115 236 321 335 341 420 455 476 531 528 557 569 583 574 592 652 685 678 676 737 731 731 725 684 665 682 625 686 654 865 1216 1143 1027 655 341 532 497 570 512 560 535 542 514 536 515 494 477 504 522 549 539 539 538 602 619 595 581 572 536 517 453 438 356 379 316 321 294 281 275 286 238 264 263 242 233 234 222 221 183 214 161 157 148 134 92 81 69 78 27 6 0 37 17 17 -8 -8 -13 -13 -66 -20 -28 -45 -73 -88 -97 -74 -95 -106 -113 -100 -96 -96 -108 -87 -114 -104 -105 -78 -98 -90 -104 -66 -72 -14 -78 -107 -123 -179 -193 -176 -244 -164 -149 129 577 496 121 -234 -422 -305 -302 -270 -264 -249 -261 -259 -249 -235 -266 -228 -204 -197 -176 -131 -129 -145 -58 -54 -82 -42 -86 -63 -70 -127 -171 -187 -226 -223 -254 -265 -286 -302 -313 -298 -294 -268 -268 -233 -243 -235 -281 -253 -267 -254 -294 -329 -347 -292 -342 -342 -354 -357 -383 -362 -373 -356 -397 -336 -374 -364 -375 -373 -387 -397 -377 -378 -428 -394 -415 -396 -403 -394 -352 -329 -353 -275 -307 -342 -342 -395 -409 -384 -389 -394 -358 -74 300 347 98 -332 -585 -499 -423 -400 -396 -383 -411 -373 -389 -398 -386 -332 -358 -347 -307 -306 -293 -227 -203 -167 -180 -174 -174 -182 -233 -250 -324 -345 -382 -397 -423 -402 -425 -409 -414 -381 -371 -347 -354 -305 -317 -280 -289 -277 -268 -252 -321 -317 -320 -296 -325 -316 -334 -309 -322 -299 -336 -324 -322 -357 -379 -361 -371 -358 -386 -364 -364 -391 -389 -371 -390 -420 -377 -380 -390 -364 -387 -410 -376 -382 -383 -393 -376 -395 -365 -364 -322 -358 -294 -321 -253 -246 -301 -211 -242 -232 -325 -336 -336 -329 -344 -276 -232 124 529 315 8 -340 -498 -338 -367 -299 -326 -326 -331 -297 -314 -286 -288 -247 -242 -237 -209 -148 -176 -113 -110 -50 -83 -57 -76 -133 -118 -177 -251 -276 -256 -271 -285 -309 -298 -295 -284 -280 -293 -282 -269 -252 -231 -296 -250 -267 -254 -209 -278 -265 -263 -264 -273 -295 -285 -261 -301 -262 -293 -277 -292 -279 -269 -261 -265 -254 -283 -262 -319 -298 -278 -265 -261 -271 -277 -246 -274 -224 -280 -282 -281 -258 -259 -233 -263 -238 -266 -247 -239 -239 -274 -225 -238 -259 -229 -193 -237 -148 -151 -188 -209 -236 -269 -256 -257 -223 -214 38 226 389 354 -76 -401 -372 -269 -235 -251 -225 -250 -222 -222 -153 -181 -185 -127 -138 -160 -91 -77 -31 -34 21 30 40 36 87 23 11 -31 -45 -125 -84 -138 -180 -162 -154 -142 -150 -155 -106 -133 -110 -107 -88 -131 -128 -99 -128 -158 -136 -137 -134 -147 -139 -173 -166 -189 -149 -153 -143 -174 -204 -180 -171 -158 -176 -179 -140 -157 -138 -144 -147 -171 -136 -134 -166 -168 -188 -173 -128 -191 -120 -132 -125 -113 -82 -95 -35 -28 -39 -87 -117 -150 -124 -138 -167 -145 -34 154 595 623 229 -175 -277 -227 -185 -152 -137 -142 -122 -139 -149 -143 -119 -121 -135 -76 -67 -94 -15 9 32 35 61 77 35 15 36 5 -41 -69 -93 -118 -119 -134 -123 -115 -98 -110 -81 -92 -89 -64 -25 -47 -38 -51 -17 -38 -59 -57 -81 -48 -71 -101 -60 -90 -75 -119 -96 -131 -104 -103 -160 -135 -108 -158 -172 -151 -134 -160 -130 -166 -167 -103 -102 -106 -51 -40 -120 -133 -156 -171 -163 -165 -160 -139 32 384 723 448 -103 -281 -256 -167 -160 -147 -111 -112 -88 -87 -75 -56 -58 -40 -9 -39 -12 44 49 94 117 142 170 113 137 106 91 39 5 -17 -28 -76 -111 -112 -58 -67 -56 -50 -38 -48 -51 -75 -41 -44 -39 -26 -13 -39 0 -37 -46 -26 -59 -37 -77 -55 -29 -58 -47 -50 -30 -57 -57 -55 -16 -67 -65 -53 -42 -96 -118 -97 -71 -56 -69 -71 -71 -101 -109 -67 -42 -45 -80 -54 -50 -48 -44 -55 -42 -22 10 8 -59 44 48 -9 1 -14 7 -53 -73 -40 20 295 832 849 329 -127 -247 -70 -28 9 23 57 28 30 71 47 47 21 77 109 116 123 179 158 242 244 248 232 245 244 159 123 120 48 35 15 27 14 -8 -15 -13 -8 -20 45 22 -27 25 40 49 47 73 51 75 61 51 29 40 32 42 29 32 43 47 42 47 -8 57 65 -7 -5 15 53 53 39 12 -25 34 -10 -44 5 -60 -24 22 0 -17 -18 0 -23 -26 -15 -46 -32 -44 -3 -11 -50 -12 -19 -76 -33 0 6 26 30 52 67 128 104 27 55 39 -11 -12 -22 -34 6 241 682 776 338 -89 -210 -128 -54 -69 -11 -22 -9 -6 4 -22 -29 -13 12 37 58 81 93 95 178 190 193 210 185 152 164 150 93 -3 -2 -3 -12 -35 -38 -40 -66 -57 -14 -8 -8 -29 16 5 8 29 23 -36 -12 -14 -11 -9 -10 -38 -42 -68 -61 -44 -12 -45 -24 -69 -64 -71 -54 -76 -83 -102 -95 -92 -84 -130 -103 -109 -101 -96 -100 -119 -98 -129 -92 -108 -86 -84 -71 -36 -29 4 53 11 11 -79 -40 -97 -37 -109 -93 169 475 814 449 10 -172 -199 -27 -66 -17 -47 15 19 -9 -32 32 46 49 69 67 94 131 139 188 147 185 214 213 188 157 105 102 79 33 -24 11 -34 -32 -47 -47 -34 -19 -53 -23 -24 6 -10 41 19 33 20 -16 8 21 -15 -34 -40 -17 -14 -26 -46 -11 -34 -34 -54 -39 -46 -36 -72 -72 -99 -66 -76 -64 -76 -91 -125 
#III[uV]
602 3007 478 2851 297 2686 145 2534 17 2416 -164 -161 -191 -190 -223 -237 -266 -239 -236 -170 -193 -144 -154 -146 -165 -155 -183 -145 -180 -145 -150 -150 -150 -134 -136 -121 -148 -127 -143 -142 -143 -134 -168 -155 -169 -147 -194 -205 -195 -178 -221 -187 -196 -174 -198 -184 -212 -161 -187 -207 -207 -158 -202 -186 -206 -156 -186 -205 -200 -178 -229 -181 -215 -122 -154 -146 -134 -146 -196 -176 -191 -163 -190 -185 -198 -50 58 100 -148 -267 -287 -318 -270 -220 -158 -179 -177 -152 -192 -185 -212 -191 -210 -193 -201 -235 -230 -237 -253 -256 -256 -342 -291 -321 -257 -273 -276 -266 -252 -282 -278 -302 -288 -308 -320 -297 -263 -291 -229 -291 -252 -233 -229 -218 -215 -218 -240 -239 -244 -232 -245 -225 -222 -248 -262 -240 -266 -241 -266 -272 -233 -220 -249 -235 -247 -236 -256 -241 -280 -230 -252 -238 -224 -271 -257 -239 -250 -228 -261 -228 -232 -218 -234 -227 -205 -218 -232 -216 -212 -178 -177 -180 -170 -203 -205 -218 -200 -179 -188 -195 -202 -60 33 71 -124 -345 -356 -328 -266 -197 -161 -157 -140 -126 -146 -115 -137 -126 -162 -125 -154 -171 -175 -170 -213 -194 -217 -230 -220 -214 -211 -170 -180 -164 -183 -170 -184 -197 -212 -176 -194 -202 -202 -121 -144 -115 -146 -135 -147 -143 -155 -123 -154 -119 -135 -125 -161 -142 -181 -148 -160 -142 -149 -124 -147 -138 -146 -113 -151 -150 -162 -182 -197 -163 -182 -168 -180 -181 -203 -163 -185 -201 -193 -193 -196 -198 -231 -220 -229 -221 -199 -190 -208 -229 -219 -174 -199 -157 -156 -129 -178 -191 -214 -169 -197 -206 -193 -196 -118 41 38 -124 -263 -164 -249 -214 -190 -142 -141 -118 -165 -104 -151 -114 -185 -113 -148 -146 -159 -129 -178 -203 -242 -221 -255 -200 -267 -165 -187 -152 -128 -106 -115 -152 -142 -114 -162 -147 -125 -118 -103 -76 -114 -93 -86 -86 -95 -89 -114 -100 -78 -123 -103 -87 -119 -63 -92 -105 -94 -61 -86 -105 -94 -80 -115 -110 -109 -112 -105 -164 -186 -81 -162 -103 -172 -128 -159 -137 -153 -121 -164 -117 -142 -143 -156 -116 -176 -161 -233 -170 -251 -138 -219 -128 -46 51 27 -204 -238 -229 -284 -188 -215 -132 -196 -136 -165 -135 -175 -128 -185 -179 -158 -158 -171 -170 -219 -222 -263 -261 -267 -274 -275 -220 -212 -179 -165 -153 -179 -179 -205 -177 -210 -198 -198 -178 -176 -161 -188 -159 -186 -179 -172 -125 -171 -143 -161 -130 -138 -64 -188 -138 -156 -107 -106 -85 -112 -90 -116 -70 -101 -74 -101 -90 -101 -86 -119 -64 -108 -82 -89 -102 -79 -82 -125 -82 -116 -110 -94 -58 -56 -85 -50 -62 -126 -102 -119 -97 -114 -117 -152 1 110 143 -84 -218 -217 -234 -177 -87 -77 -84 -63 -35 -36 -12 -32 -11 -37 0 -44 -32 -44 -21 -49 -54 -86 -77 -82 -77 -59 -47 -37 -32 -58 -19 -58 -60 -59 -47 -51 -48 -58 -101 -83 -21 -47 -43 -5 -8 -20 -2 -25 -25 -49 -34 -37 -38 -29 -13 -31 -25 -14 1 -5 29 -20 -23 16 16 -9 27 0 5 -6 -1 -12 8 4 -32 -7 6 -8 -29 -21 -25 -28 -3 -11 -13 0 2 3 36 -8 -30 -31 -25 -30 -61 -51 -38 35 105 196 33 -230 -256 -230 -130 -61 -7 3 -1 16 -20 3 20 15 39 6 26 -28 -18 -6 -16 -31 -34 -51 -64 -62 -36 -25 7 -13 -5 6 -1 -8 12 -30 -1 -24 -45 -39 -5 -20 -71 -64 -10 -6 -14 -54 -2 -31 -11 -13 -65 10 -14 -93 -6 -44 -5 -17 0 -28 -42 -20 -28 -18 -6 -10 18 -38 -17 -6 -21 15 2 0 17 -48 -12 0 -22 0 -11 -6 4 -43 -17 -17 -12 -50 -22 20 1 24 -5 -40 -45 -55 -43 -60 -66 -14 83 157 190 -194 -168 -50 -139 -79 -76 -12 -1 -9 31 -11 -13 0 18 14 20 6 -50 -46 -67 -74 -60 -116 -103 -102 -122 -108 -59 -7 -1 -28 -15 -88 -98 -72 -92 -56 -37 -62 -38 -36 -41 -30 -8 -48 -119 -29 -16 -4 -11 -69 -21 -64 -52 -13 -15 -3 -7 3 11 17 17 18 49 49 -27 34 56 36 60 73 41 -19 58 61 47 65 81 120 69 17 36 66 68 37 62 16 22 -16 76 221 263 263 -38 -97 -38 -53 8 57 75 7 96 126 96 66 82 110 106 113 102 120 130 99 117 95 13 48 117 78 61 155 219 189 227 193 152 191 236 223 194 171 229 250 229 200 211 234 245 234 243 233 227 225 219 196 201 207 177 216 204 154 210 190 207 209 226 233 158 168 204 201 203 198 215 225 237 250 248 249 186 187 229 256 241 239 273 260 272 283 253 263 262 217 221 260 164 212 213 313 482 471 340 40 46 112 86 228 224 236 242 239 258 235 257 257 177 242 236 264 221 218 232 183 195 227 189 203 237 259 293 290 304 308 281 291 288 298 303 290 321 327 299 283 298 325 339 339 307 331 330 340 326 322 300 299 302 295 259 290 271 261 236 276 277 305 217 262 265 275 276 294 286 298 254 263 236 296 296 374 484 478 514 540 605 634 656 683 682 708 716 734 745 794 814 818 781 892 796 854 801 782 770 800 761 793 852 913 979 875 494 626 553 665 698 723 722 781 724 733 699 781 659 706 637 673 645 658 573 597 521 622 516 508 497 530 518 559 557 574 528 576 507 511 482 516 453 496 441 459 447 424 414 439 412 429 360 399 357 390 362 334 312 310 291 290 253 251 221 236 204 222 230 222 205 201 158 189 167 170 144 157 128 136 96 106 91 116 98 123 110 103 92 101 93 102 83 111 102 117 77 120 58 18 7 26 -1 9 -7 36 78 192 229 -87 -150 -37 -177 -109 -121 -70 -80 -86 -85 -110 -102 -112 -131 -106 -135 -125 -145 -148 -164 -200 -208 -232 -260 -254 -247 -203 -188 -165 -159 -127 -143 -129 -161 -180 -178 -191 -197 -189 -213 -168 -199 -173 -180 -183 -174 -191 -223 -177 -247 -252 -267 -247 -278 -266 -290 -280 -329 -280 -305 -288 -290 -268 -327 -301 -325 -314 -313 -323 -346 -314 -356 -353 -339 -333 -358 -341 -331 -296 -302 -245 -309 -351 -353 -335 -343 -328 -315 -353 -239 -106 -67 -265 -443 -390 -461 -420 -375 -331 -311 -331 -353 -343 -357 -361 -356 -327 -350 -369 -373 -363 -380 -367 -407 -417 -428 -428 -454 -417 -395 -358 -376 -367 -385 -365 -392 -382 -390 -361 -383 -350 -356 -323 -336 -318 -302 -288 -324 -297 -315 -297 -335 -322 -316 -327 -335 -343 -340 -322 -329 -317 -330 -327 -338 -351 -349 -349 -371 -363 -358 -360 -352 -362 -373 -366 -366 -374 -341 -358 -340 -353 -344 -360 -334 -339 -325 -337 -341 -322 -323 -342 -288 -310 -264 -299 -212 -206 -276 -218 -296 -269 -324 -288 -290 -297 -285 -242 -147 -34 20 -236 -472 -409 -429 -313 -295 -219 -255 -237 -237 -209 -237 -188 -214 -186 -203 -188 -202 -174 -227 -205 -241 -225 -284 -235 -296 -302 -240 -230 -252 -213 -207 -194 -207 -205 -206 -204 -194 -183 -215 -181 -196 -158 -170 -211 -185 -170 -185 -167 -192 -182 -210 -189 -218 -220 -220 -219 -229 -234 -245 -248 -271 -245 -270 -224 -253 -241 -244 -234 -258 -271 -254 -204 -215 -221 -248 -192 -217 -193 -205 -214 -224 -190 -220 -193 -204 -174 -209 -184 -205 -203 -190 -193 -184 -223 -208 -159 -219 -155 -179 -213 -243 -213 -238 -253 -217 -255 -167 -2 -33 -75 -467 -466 -393 -395 -301 -262 -250 -224 -243 -232 -244 -199 -249 -215 -216 -234 -250 -250 -266 -253 -305 -278 -329 -339 -313 -293 -278 -220 -236 -176 -212 -202 -208 -216 -208 -175 -210 -195 -214 -177 -192 -172 -186 -162 -186 -174 -201 -196 -209 -214 -213 -178 -206 -205 -224 -212 -214 -196 -223 -196 -225 -267 -256 -256 -265 -285 -250 -218 -246 -227 -260 -240 -245 -235 -237 -270 -277 -251 -265 -224 -242 -266 -241 -230 -254 -181 -214 -201 -185 -224 -280 -268 -264 -259 -248 -303 -251 -120 -56 12 -282 -308 -256 -335 -301 -301 -262 -250 -263 -236 -244 -259 -288 -237 -228 -287 -270 -225 -278 -267 -296 -287 -304 -331 -317 -341 -307 -249 -226 -203 -203 -180 -204 -187 -203 -198 -219 -195 -181 -165 -194 -197 -168 -156 -173 -142 -137 -155 -144 -137 -157 -176 -170 -165 -173 -141 -167 -170 -235 -192 -190 -207 -198 -226 -218 -196 -233 -251 -206 -201 -213 -184 -209 -202 -164 -159 -183 -141 -163 -216 -217 -223 -189 -214 -159 -224 -141 9 52 -19 -285 -280 -263 -247 -181 -241 -176 -135 -125 -130 -130 -107 -119 -125 -144 -102 -132 -162 -136 -167 -154 -180 -180 -181 -221 -146 -148 -122 -111 -68 -92 -78 -106 -174 -150 -72 -97 -78 -89 -78 -82 -135 -103 -87 -80 -51 -78 -52 -53 -17 -61 -87 -46 -57 -45 -74 -41 -22 -55 -39 -50 -44 -44 -34 -54 -22 -59 -28 -26 -48 -77 -87 -64 -41 -56 -42 -40 -14 -69 -97 -34 -16 -3 -30 -37 -39 -38 -10 -31 -34 -11 36 24 -73 26 11 -48 -6 -19 41 -7 -46 43 94 263 360 55 -120 -152 -131 -15 37 49 78 99 109 118 105 61 100 71 85 109 110 72 97 75 67 73 41 4 43 50 40 73 96 61 94 89 85 85 69 79 69 72 59 85 90 41 86 108 113 86 113 110 128 122 96 96 106 85 127 119 93 81 112 117 116 60 144 144 50 72 94 139 126 140 127 44 133 115 47 119 68 102 108 85 94 72 95 72 62 75 61 60 58 96 103 40 96 92 -13 61 95 91 80 111 122 93 147 118 35 96 90 65 78 69 81 146 262 287 -13 -127 -55 -57 -15 34 74 76 100 90 88 103 58 52 39 70 88 60 51 45 9 48 11 8 -9 -38 -24 57 75 88 36 76 88 66 59 81 75 67 61 85 111 93 42 123 113 72 110 104 15 78 62 66 64 55 51 49 32 35 24 59 23 38 -2 19 10 20 -20 12 -34 -34 -30 -19 -37 -43 -56 -16 -15 -26 -64 -44 -74 -13 -44 -45 -68 -21 -5 -27 7 9 -27 -19 -52 -26 -72 -23 -66 19 184 191 96 -97 -88 -90 -127 -37 -44 -8 0 13 -1 16 8 55 40 30 45 28 14 26 5 12 -50 -39 -68 -30 -34 -33 -14 54 41 43 36 48 14 16 21 53 1 25 2 64 36 58 49 84 77 52 64 76 82 74 36 33 10 51 31 51 52 58 47 46 11 36 6 47 4 26 -15 32 -4 20 8 -23 -24 
#avR[uV]
2528 1305 2024 812 1522 323 1004 -245 492 -751 -65 -88 -114 -140 -153 -195 -177 -163 -147 -114 -54 -30 7 46 45 38 58 64 61 46 58 36 51 10 44 62 -7 -10 14 6 29 31 30 47 58 29 44 63 87 84 74 89 107 71 92 93 88 97 117 87 115 102 124 118 91 111 129 92 122 95 124 123 108 72 62 66 20 0 42 24 75 93 107 65 118 42 -65 -331 -720 -443 63 180 133 100 151 111 111 90 57 82 108 88 65 76 43 -18 -18 -34 -71 -122 -188 -164 -201 -164 -143 -93 -78 -29 24 61 56 33 67 95 42 66 60 46 33 13 9 -1 -12 -16 -11 0 1 0 -1 6 0 -11 17 13 19 28 2 22 -3 2 18 12 32 0 31 43 31 38 31 34 52 16 38 56 44 58 69 49 61 49 44 62 48 51 53 80 62 30 57 34 19 20 -42 -33 -9 -9 29 56 60 46 76 -59 -120 -310 -800 -502 61 102 98 44 61 83 63 14 9 14 8 3 16 -19 -16 -47 -54 -86 -128 -141 -204 -200 -191 -183 -114 -122 -58 -1 38 100 132 86 85 117 130 93 105 107 111 82 64 84 96 72 96 81 108 93 104 103 126 110 110 100 116 91 113 110 114 77 104 107 118 108 104 117 125 98 124 102 125 101 105 112 128 125 124 113 104 113 131 108 114 91 99 120 91 98 102 82 60 38 40 -25 -58 -64 -41 0 -19 -40 1 -84 -18 -309 -539 -456 -570 -201 41 -35 -20 -70 -25 -24 -32 -70 -32 -95 -78 -81 -83 -101 -122 -149 -171 -225 -236 -278 -294 -288 -261 -246 -214 -182 -131 -93 -51 -61 -44 -9 0 -3 -21 -55 -38 -55 -51 -70 -55 -54 -57 -55 -60 -29 -35 -21 -35 -42 -16 -16 -18 -39 -35 -31 -6 -6 12 -28 -9 0 12 -2 12 13 20 15 25 -16 21 17 11 9 34 -5 26 -11 -23 -11 -45 -93 -30 -61 -39 -29 30 -53 17 -53 -91 -395 -794 -549 -160 22 76 -35 -23 -55 -20 -59 -56 -74 -76 -99 -89 -94 -95 -156 -159 -193 -225 -254 -271 -287 -264 -278 -274 -224 -157 -152 -94 -68 -44 -43 -26 -37 -4 -14 -26 -29 -24 -57 -56 -42 -55 -86 -74 -73 -38 -56 -67 -59 -40 -44 -42 -44 -29 -63 -35 -47 -33 -36 -38 -40 -24 -23 -53 -34 -17 -32 -7 -29 -11 10 0 -23 6 5 -3 -3 14 -23 -11 -5 -42 -39 -51 -71 -31 -9 8 25 47 15 51 -1 -113 -493 -773 -414 8 148 119 24 54 59 40 57 39 19 45 8 9 -23 -16 -34 -56 -124 -121 -158 -213 -197 -213 -230 -149 -120 -53 -23 34 82 76 54 82 84 106 109 87 100 83 74 72 51 73 60 66 68 70 69 70 96 85 70 121 115 80 83 111 63 107 91 78 98 96 78 71 80 89 93 110 89 83 96 108 106 94 79 74 103 100 107 98 94 94 63 60 53 43 17 -22 30 55 71 103 103 128 78 95 -41 -454 -690 -422 160 226 131 130 86 110 87 107 109 91 70 67 49 54 33 25 -6 -42 -110 -172 -196 -180 -177 -161 -142 -123 -65 -16 53 57 71 93 85 135 124 113 81 88 97 113 103 105 94 88 102 69 55 117 75 102 119 108 87 113 118 94 106 92 94 97 117 105 100 114 109 97 117 132 115 104 122 129 123 132 121 134 129 103 149 129 134 129 141 158 116 156 155 133 131 118 87 62 55 75 129 156 146 178 159 151 134 -141 -570 -579 -174 181 257 170 128 127 108 90 108 88 69 76 34 43 28 -26 -24 -37 -74 -160 -191 -242 -241 -228 -240 -219 -192 -131 -109 -78 -40 -32 -32 -8 37 -20 -34 -18 -42 -31 -72 -54 -67 -54 -30 -65 -62 -41 -46 -59 -33 8 -8 -48 -16 -21 -35 -15 -22 -49 -42 -53 -38 -63 -45 -36 -52 -50 -32 -56 -93 -34 -25 -62 -83 -49 -71 -83 -97 -111 -113 -160 -111 -65 -63 -22 -31 -23 -32 -91 -413 -830 -687 -167 56 84 0 -60 -19 -28 -27 -69 -35 -6 -84 -69 -79 -99 -102 -129 -170 -195 -250 -261 -234 -288 -297 -277 -207 -155 -124 -80 -63 -56 -11 -15 -17 -12 -17 39 -2 -9 1 10 -12 -27 5 -16 -18 -22 -5 32 4 37 34 38 70 51 59 57 56 85 58 59 68 60 105 96 79 69 68 62 77 73 38 87 92 46 98 89 48 73 54 67 62 65 48 61 62 -37 11 64 42 60 133 125 91 112 -1 -387 -745 -494 23 227 178 98 135 92 114 88 89 88 49 56 93 37 1 14 -10 -30 -75 -121 -164 -160 -195 -199 -156 -128 -101 -33 -5 22 59 53 51 87 49 41 96 55 34 69 38 16 22 12 -3 -20 16 0 3 13 34 19 23 20 18 48 48 48 48 25 28 30 48 33 30 17 48 18 56 72 1 13 23 10 32 -49 -79 -96 -84 -150 -152 -159 -203 -186 -216 -215 -225 -207 -219 -255 -278 -268 -285 -290 -333 -304 -324 -292 -279 -282 -244 -289 -227 -408 -726 -706 -780 -342 -64 -199 -148 -208 -150 -169 -173 -175 -164 -146 -186 -140 -158 -167 -200 -220 -252 -240 -277 -291 -361 -341 -333 -307 -277 -237 -174 -150 -92 -90 -62 -65 -53 -23 -48 -38 -17 -34 -39 -30 -26 -14 -16 -6 -2 -15 17 37 32 32 63 73 76 66 99 118 110 80 84 93 123 119 116 113 145 115 111 130 145 166 161 143 143 159 158 158 146 158 164 138 161 155 152 129 140 146 155 124 111 74 107 116 127 192 192 181 240 182 188 -33 -462 -540 -197 215 334 250 241 235 224 206 219 203 198 178 201 175 136 134 103 57 46 44 -46 -61 -48 -84 -37 -38 -23 44 91 123 154 158 174 175 197 206 214 203 188 184 168 147 153 143 193 158 156 165 170 203 213 168 203 209 209 217 219 222 220 212 252 202 210 213 213 216 230 235 204 221 250 217 245 230 224 223 187 180 202 152 152 166 165 227 237 219 232 218 238 20 -333 -479 -320 137 355 289 235 234 240 217 234 201 211 217 207 169 183 162 121 124 103 43 0 -41 -33 -39 -52 -25 36 71 136 161 190 214 227 210 229 228 222 206 193 185 186 145 166 136 126 129 111 104 153 155 162 133 157 144 164 148 157 140 171 160 153 182 204 186 185 176 206 184 187 210 202 188 207 233 206 201 220 187 214 229 209 212 220 225 205 234 203 192 178 203 162 171 147 142 162 102 93 97 163 191 191 180 201 155 158 -142 -519 -433 -244 135 283 181 220 189 198 207 212 192 196 192 181 154 140 143 108 61 63 10 -9 -62 -58 -60 -72 -18 -2 62 124 170 152 174 181 206 194 193 186 188 186 191 171 173 146 190 157 182 161 125 182 174 158 169 163 185 174 151 187 145 171 153 156 156 134 149 138 134 161 145 190 162 151 163 153 161 153 150 165 127 177 175 169 163 149 136 161 151 162 155 136 138 179 128 146 147 125 114 127 70 61 82 88 129 149 129 148 95 131 -39 -243 -427 -587 -156 204 174 118 104 126 113 128 106 100 53 56 78 19 20 34 -33 -55 -95 -117 -161 -194 -210 -193 -234 -162 -122 -87 -42 19 -16 34 72 57 66 37 52 48 17 37 23 13 7 38 41 -1 30 53 29 30 45 44 37 61 60 82 51 41 44 61 70 52 42 25 33 53 30 34 25 14 27 48 18 16 31 30 62 40 15 70 -12 11 10 -13 -7 -12 -65 -64 -72 -52 -16 18 -5 13 15 20 -26 -182 -589 -764 -383 47 109 76 34 21 11 10 3 17 19 -1 0 7 -8 -58 -45 -44 -117 -158 -175 -187 -226 -236 -205 -169 -161 -118 -60 -31 3 15 25 32 23 5 1 19 -1 -4 -8 -19 -52 -39 -33 -17 -60 -33 -9 -21 -7 -36 -11 15 -10 6 -9 1 0 35 0 4 47 26 10 41 46 48 33 53 38 62 66 21 22 14 -19 -40 12 24 44 77 55 85 48 69 -27 -358 -732 -590 -36 149 132 76 39 59 43 49 23 22 21 -3 -3 -31 -41 -26 -68 -112 -133 -171 -207 -232 -260 -224 -210 -180 -153 -95 -39 -28 -10 23 23 37 21 18 17 6 0 6 -16 23 -1 4 13 -12 -12 13 -9 6 2 3 30 14 39 34 18 30 28 25 7 34 40 28 4 37 50 40 17 57 74 65 50 28 48 51 64 67 60 50 34 44 65 35 30 29 39 39 25 17 7 3 22 -31 -43 -14 -4 5 13 49 50 62 27 -164 -652 -821 -389 50 182 63 47 15 15 -8 26 29 -18 -16 2 13 -34 -55 -61 -87 -130 -120 -208 -208 -228 -230 -224 -218 -139 -87 -72 -17 12 29 15 28 43 55 48 44 50 -3 23 47 17 14 6 -4 -16 3 -11 0 -2 18 13 9 21 30 14 -2 8 16 10 38 15 7 32 41 31 16 9 31 50 47 31 68 67 54 94 75 31 42 64 54 48 60 58 52 77 63 74 51 62 70 60 65 70 64 47 39 13 25 9 -20 -54 -45 -10 -7 5 44 51 57 74 67 -109 -538 -783 -402 62 181 121 71 106 49 72 54 50 47 51 56 33 22 6 -28 -55 -70 -90 -154 -184 -189 -215 -204 -164 -135 -112 -48 21 41 47 46 65 79 78 100 88 57 64 54 51 44 51 27 25 28 44 51 45 44 42 37 64 66 84 79 57 42 56 43 67 74 77 64 66 89 84 77 76 74 111 81 81 93 88 87 87 76 92 85 86 63 50 60 33 15 -1 -48 -24 -21 53 27 61 26 75 103 -77 -379 -766 -497 -55 127 135 8 43 13 47 -9 -20 18 37 -4 -25 -33 -47 -53 -87 -118 -137 -182 -173 -205 -249 -228 -206 -174 -112 -74 -59 -11 42 12 41 40 58 74 35 31 55 56 43 23 35 0 19 -7 12 54 32 15 33 50 45 43 30 52 72 40 57 57 60 58 50 59 75 85 91 82 74 74 80 79 113 
#avL[uV]
-1716 -2907 -1370 -2545 -984 -2176 -611 -1778 -259 -1436 156 165 201 213 244 275 288 261 251 185 172 123 111 86 101 97 108 76 104 85 83 94 87 95 80 59 115 100 100 103 93 85 111 92 97 95 123 122 103 91 128 95 93 95 102 91 115 71 81 111 97 67 89 80 108 61 75 108 89 85 109 74 107 55 84 76 90 109 125 120 106 75 88 106 89 16 -10 90 471 421 183 148 135 114 43 78 77 69 115 98 104 99 125 106 129 185 182 195 225 253 286 338 319 323 265 251 246 214 177 181 180 210 182 183 219 190 167 195 155 212 184 176 178 172 167 163 179 179 184 171 183 175 157 179 186 165 198 169 201 203 165 159 170 176 169 155 176 161 195 155 163 170 148 175 170 150 153 146 165 146 152 132 151 144 127 123 142 147 130 116 123 124 148 169 159 168 135 106 111 123 113 75 35 102 493 510 236 194 150 126 90 76 73 88 104 79 98 92 113 104 123 152 158 171 224 216 265 273 260 252 215 189 164 123 118 77 72 104 116 74 80 104 98 37 52 44 78 59 62 71 68 52 61 42 49 42 57 51 80 61 62 61 55 37 53 65 57 31 54 58 69 78 85 73 74 75 72 85 99 65 75 88 82 88 94 92 107 111 114 120 100 82 110 122 113 89 119 98 97 110 163 176 181 126 157 175 144 189 98 123 241 322 482 224 166 178 152 142 118 100 140 113 129 133 178 125 153 160 181 171 219 265 300 305 339 294 331 247 247 206 162 126 112 145 128 90 122 112 104 116 97 84 111 105 93 92 100 94 116 89 76 103 94 86 98 55 78 99 88 61 68 82 64 75 91 83 75 85 72 116 129 53 109 85 118 87 114 98 97 94 109 93 118 113 139 134 147 152 194 142 173 130 155 123 80 158 376 428 259 160 175 159 173 127 157 131 152 138 169 145 184 181 166 197 208 224 277 294 333 339 333 344 343 277 238 210 171 149 156 156 167 152 160 155 162 148 144 149 169 140 167 177 166 130 147 135 155 127 124 70 162 125 131 112 97 87 101 86 106 73 88 67 102 85 84 81 93 63 87 56 67 88 56 58 95 63 80 94 76 46 63 83 63 82 110 81 85 60 62 80 88 0 -26 138 450 370 159 101 73 53 31 33 27 -1 8 0 1 4 23 12 41 41 61 78 97 120 171 156 169 173 119 95 54 36 26 -27 5 18 3 -6 -14 -18 0 25 21 -21 0 6 -32 -23 -17 -32 -15 -15 2 -22 -14 -6 -38 -47 -16 -22 -44 -33 -49 -68 -23 -31 -60 -51 -28 -60 -44 -50 -49 -43 -32 -54 -57 -28 -41 -44 -30 -29 -34 -34 -27 -44 -38 -21 -31 -28 -24 -36 17 7 -4 -16 -28 -5 -25 -10 -74 -58 79 319 384 112 59 31 -19 -37 -57 -43 -66 -39 -48 -50 -45 -54 -32 -36 8 17 25 67 109 124 128 137 127 98 81 27 18 -22 -33 -34 -40 -52 -45 -60 -37 -6 -14 -44 -41 1 -4 -38 -39 -40 5 -25 -34 -28 -41 -10 -62 -32 13 -54 -14 -49 -33 -47 -27 -26 -37 -28 -43 -49 -40 -72 -36 -44 -47 -45 -76 -63 -65 -73 -30 -55 -52 -57 -64 -58 -59 -74 -46 -45 -65 -68 -29 -49 -74 -44 -49 -23 -7 -30 -36 -40 -44 -29 -64 -130 -47 141 435 213 -52 -23 -25 -6 -54 -52 -38 -77 -35 -24 -38 -31 -32 -29 8 49 53 87 135 141 209 198 190 212 191 140 70 55 61 31 82 89 58 50 53 45 55 50 42 67 49 40 63 104 54 43 24 31 81 32 43 43 34 19 13 23 5 2 11 8 13 -17 -5 43 -7 -16 -2 -29 -26 15 32 -30 -14 5 -24 -25 -48 -3 42 29 30 4 4 -14 -1 -1 24 -41 -120 8 217 373 156 0 -2 -6 -12 -47 8 -58 -60 -54 -46 -19 -47 -40 -35 -25 -25 -12 23 36 59 107 108 60 79 57 -39 -102 -101 -138 -117 -108 -136 -169 -161 -137 -148 -170 -183 -172 -155 -152 -161 -186 -167 -172 -164 -167 -185 -167 -166 -168 -174 -168 -188 -182 -144 -186 -185 -184 -187 -203 -205 -171 -175 -192 -185 -186 -180 -200 -205 -197 -231 -232 -210 -189 -185 -196 -229 -208 -213 -236 -228 -228 -242 -221 -179 -202 -195 -187 -225 -190 -222 -205 -290 -361 -159 117 216 -46 -197 -154 -220 -235 -224 -239 -224 -238 -221 -218 -221 -179 -200 -178 -205 -160 -148 -136 -77 -64 -90 -44 -52 -99 -129 -169 -200 -225 -242 -241 -245 -241 -267 -252 -238 -288 -273 -241 -247 -243 -252 -265 -260 -229 -238 -256 -255 -246 -249 -242 -234 -238 -231 -203 -242 -227 -220 -202 -219 -222 -244 -187 -213 -214 -215 -231 -229 -243 -259 -191 -204 -188 -227 -238 -256 -323 -310 -344 -330 -377 -395 -390 -419 -404 -423 -424 -447 -449 -467 -472 -479 -443 -524 -430 -488 -439 -440 -437 -458 -448 -450 -525 -480 -371 -303 19 -298 -382 -399 -450 -437 -466 -500 -456 -462 -442 -512 -401 -459 -399 -421 -384 -384 -303 -327 -251 -321 -206 -210 -206 -244 -250 -300 -331 -355 -349 -387 -348 -351 -335 -375 -316 -353 -322 -327 -315 -303 -297 -322 -301 -318 -268 -291 -277 -311 -288 -267 -266 -269 -257 -251 -240 -248 -221 -217 -195 -213 -234 -226 -212 -207 -191 -200 -181 -193 -181 -201 -177 -173 -143 -159 -148 -166 -147 -171 -165 -146 -150 -154 -146 -142 -132 -156 -154 -150 -113 -127 -97 -71 -69 -116 -95 -97 -114 -118 -153 -127 58 335 211 -79 -33 -43 -30 -64 -51 -38 -45 -18 -21 -4 -2 -8 33 27 57 82 100 128 179 204 219 232 204 172 153 101 74 33 30 17 34 47 34 40 40 40 65 34 65 56 58 65 34 64 89 50 100 87 93 101 106 95 113 101 137 99 118 109 91 100 140 119 137 127 119 124 157 124 142 156 131 135 156 143 154 132 125 108 155 180 182 137 138 136 120 156 60 69 217 438 493 224 168 171 164 131 113 139 147 156 162 162 163 161 171 196 219 209 234 253 305 334 338 341 367 326 278 233 214 194 193 166 180 181 178 157 176 159 170 149 158 166 144 148 180 158 180 170 175 164 155 178 173 185 173 167 168 167 162 165 176 172 159 168 186 184 165 178 170 166 178 180 171 163 153 167 145 171 151 155 145 148 134 140 153 124 141 160 127 130 116 139 85 83 126 112 175 153 161 120 122 132 113 104 31 96 244 393 476 238 180 144 111 69 92 74 71 60 79 45 70 62 82 69 97 100 138 148 185 200 242 207 258 235 181 141 126 74 79 58 64 50 57 56 52 43 68 40 61 32 54 63 60 36 58 63 53 49 78 56 82 72 78 89 78 103 98 109 125 106 135 93 120 113 102 103 98 122 115 71 84 85 109 69 80 81 65 72 83 61 90 76 72 55 75 60 86 83 53 80 65 93 93 62 100 81 104 118 138 95 103 125 89 144 59 21 146 270 644 428 192 209 166 144 124 111 118 121 132 123 158 122 152 165 170 204 227 237 287 289 344 360 331 337 290 226 221 153 149 159 139 126 127 97 138 119 136 124 125 117 133 118 120 110 151 132 130 145 144 110 132 135 138 129 120 121 146 124 138 165 166 171 186 197 160 148 167 157 188 166 159 167 169 186 192 157 179 160 146 206 175 167 197 140 167 184 171 204 236 209 188 197 179 220 178 103 134 285 594 423 168 196 188 208 185 182 192 175 174 184 217 177 168 219 231 192 230 259 301 303 322 362 356 359 315 267 229 182 168 133 145 128 136 137 161 146 126 124 148 152 136 144 149 123 111 147 125 107 128 135 146 129 122 111 122 132 175 144 124 155 146 146 150 142 154 165 130 134 133 119 125 119 112 108 130 115 142 156 150 145 103 133 76 144 71 6 139 381 509 228 122 119 97 161 103 80 69 85 86 69 90 95 124 97 113 156 158 192 201 239 252 266 278 214 201 168 131 70 83 63 68 119 94 43 63 50 63 59 58 109 66 66 58 32 64 46 33 17 42 64 33 27 27 35 13 7 26 15 25 29 16 5 26 14 26 -4 0 27 29 28 15 5 28 7 4 -21 18 42 0 -4 -19 -10 10 14 13 -12 3 12 0 -31 -20 44 -4 12 43 7 11 -37 -19 9 -63 -84 -115 56 369 285 88 7 -20 -51 -44 -66 -70 -95 -103 -69 -37 -76 -60 -46 -54 -52 -10 -7 3 53 49 82 112 79 71 38 -11 -36 -37 -77 -81 -71 -78 -73 -87 -76 -76 -69 -62 -79 -54 -73 -88 -88 -62 -76 -84 -90 -91 -70 -81 -86 -68 -106 -104 -77 -59 -88 -96 -92 -64 -116 -111 -54 -75 -86 -112 -99 -121 -120 -57 -115 -120 -69 -116 -98 -114 -97 -85 -102 -81 -95 -84 -75 -82 -84 -77 -80 -98 -109 -65 -103 -102 -24 -78 -95 -88 -67 -96 -96 -59 -83 -66 -21 -68 -70 -71 -84 -80 -98 -143 -142 53 401 296 10 -47 -49 -62 -108 -82 -112 -94 -91 -101 -70 -67 -46 -63 -70 -31 -11 0 38 41 83 88 114 131 101 24 0 -41 -37 -77 -89 -72 -77 -101 -95 -101 -90 -93 -116 -97 -57 -115 -111 -68 -95 -92 -34 -84 -69 -71 -69 -60 -70 -70 -67 -66 -47 -66 -45 -50 -31 -51 -46 -47 -17 -54 -16 -13 -15 -22 -27 -8 1 -34 -32 -23 4 -4 9 -32 -9 2 26 -14 -13 12 -4 16 32 25 12 5 23 4 12 -66 -99 46 310 321 93 3 27 23 11 0 -23 -5 11 -21 -25 -39 -17 -6 -10 5 32 39 64 82 124 132 176 137 128 112 67 -3 -1 -26 -48 -42 -31 -32 -45 -77 -18 -35 -29 -76 -48 -55 -55 -63 -68 -35 -54 -85 -77 -63 -44 -50 -30 -60 -38 -65 -75 -64 -64 -63 -38 -56 -30 -65 -41 -63 -34 -65 -33 -52 -46 -21 -38 
#avF[uV]
-812 1602 -653 1732 -538 1853 -392 2023 -233 2188 -90 -76 -86 -72 -91 -80 -111 -97 -103 -70 -117 -93 -119 -132 -146 -135 -167 -141 -165 -132 -141 -131 -138 -106 -124 -122 -107 -89 -114 -110 -122 -116 -141 -140 -156 -125 -168 -185 -190 -175 -202 -184 -200 -166 -194 -185 -203 -169 -199 -199 -213 -170 -213 -199 -200 -173 -205 -200 -211 -181 -234 -197 -215 -127 -146 -143 -110 -109 -168 -144 -181 -169 -196 -171 -207 -59 76 241 249 21 -247 -329 -269 -215 -194 -190 -188 -159 -173 -180 -213 -187 -190 -183 -172 -166 -164 -160 -153 -131 -98 -174 -117 -159 -121 -158 -167 -184 -201 -242 -237 -243 -249 -279 -261 -256 -227 -241 -189 -225 -194 -174 -165 -155 -155 -163 -181 -179 -182 -177 -183 -163 -175 -193 -206 -194 -200 -191 -197 -205 -183 -172 -202 -176 -201 -199 -207 -199 -226 -189 -215 -187 -187 -231 -215 -209 -222 -196 -227 -196 -196 -195 -199 -196 -180 -204 -205 -177 -188 -151 -142 -145 -106 -136 -149 -158 -165 -163 -171 -169 -190 -16 85 208 306 -7 -297 -297 -249 -170 -151 -160 -137 -102 -114 -93 -107 -96 -130 -84 -107 -104 -104 -85 -96 -75 -61 -73 -69 -69 -101 -66 -106 -122 -157 -177 -204 -191 -202 -191 -211 -198 -204 -144 -163 -127 -142 -144 -158 -143 -164 -133 -169 -136 -153 -145 -184 -161 -191 -161 -178 -152 -169 -148 -167 -142 -162 -138 -173 -167 -173 -196 -210 -171 -198 -178 -198 -186 -204 -178 -203 -214 -207 -202 -199 -205 -239 -219 -229 -211 -199 -202 -201 -220 -216 -171 -179 -137 -137 -84 -104 -111 -140 -126 -138 -134 -146 -104 -79 186 298 134 87 -23 -207 -143 -132 -71 -93 -76 -107 -43 -96 -38 -99 -44 -69 -59 -58 -22 -48 -40 -63 -27 -44 -5 -69 0 -33 -23 -30 -32 -60 -83 -84 -81 -121 -108 -83 -61 -58 -29 -60 -35 -37 -38 -43 -39 -55 -60 -40 -81 -59 -44 -81 -38 -59 -59 -52 -29 -61 -75 -77 -46 -81 -82 -88 -83 -85 -129 -150 -68 -134 -68 -140 -104 -125 -107 -132 -88 -136 -82 -95 -101 -94 -40 -116 -90 -155 -113 -204 -76 -173 -69 11 236 417 121 -98 -183 -252 -123 -149 -71 -137 -72 -95 -64 -93 -46 -94 -87 -70 -40 -48 -31 -52 -39 -61 -52 -68 -66 -69 -52 -80 -57 -76 -81 -112 -113 -141 -114 -155 -141 -135 -119 -120 -92 -112 -98 -112 -91 -92 -57 -109 -79 -87 -67 -83 -25 -120 -81 -102 -48 -62 -40 -67 -49 -68 -32 -64 -44 -49 -50 -67 -48 -86 -34 -75 -67 -66 -65 -62 -64 -92 -60 -94 -70 -64 -41 -21 -44 -12 -11 -79 -71 -93 -86 -109 -96 -140 1 139 354 323 43 -167 -250 -192 -77 -85 -93 -67 -55 -47 -19 -47 -13 -32 11 -25 -7 -4 46 24 38 42 40 44 57 30 24 -1 -12 -60 -55 -81 -72 -85 -78 -91 -90 -87 -126 -104 -53 -71 -58 -41 -36 -48 -36 -54 -54 -72 -73 -70 -63 -82 -68 -64 -61 -66 -30 -58 -23 -54 -66 -36 -26 -42 -20 -45 -42 -60 -45 -51 -42 -50 -77 -53 -35 -43 -73 -66 -72 -70 -49 -55 -42 -29 -25 -19 18 4 -37 -51 -55 -75 -97 -102 -68 -21 99 374 370 38 -272 -286 -163 -111 -48 -52 -44 -41 -70 -43 -19 -21 4 -22 3 -33 -10 16 43 63 72 51 39 34 43 42 38 -2 -31 -23 -37 -53 -33 -90 -63 -75 -74 -73 -52 -72 -105 -101 -55 -49 -62 -75 -29 -82 -46 -61 -108 -46 -54 -126 -64 -80 -57 -59 -47 -70 -91 -67 -72 -70 -60 -56 -44 -95 -71 -57 -77 -53 -59 -66 -47 -103 -74 -51 -91 -64 -76 -69 -67 -112 -71 -91 -86 -104 -82 -44 -42 -12 -31 -67 -98 -120 -106 -134 -129 -86 -4 188 428 143 -38 -128 -233 -145 -122 -72 -55 -52 -30 -53 -44 -38 -3 -11 0 17 -25 -15 -13 24 50 33 43 37 28 28 51 60 53 17 9 -50 -57 -49 -87 -32 -10 -37 -7 -11 5 4 27 -9 -74 10 18 17 14 -22 0 -52 -34 14 -3 7 12 10 19 37 34 40 56 68 2 43 68 52 61 83 77 2 56 77 77 73 97 132 101 69 83 130 107 61 78 23 32 0 74 211 404 612 314 10 -56 -82 6 73 66 19 86 129 89 53 103 117 119 134 127 155 183 172 213 202 127 180 237 197 149 194 226 182 202 173 120 151 186 173 154 109 172 192 171 144 165 189 181 183 191 186 173 152 162 129 134 136 97 136 123 86 129 100 126 127 135 145 65 78 113 116 117 117 122 132 158 144 139 164 90 95 148 155 153 145 173 162 180 181 159 216 191 130 145 165 56 97 114 178 362 547 627 277 23 -29 -23 122 100 131 124 135 149 132 168 165 86 163 176 191 171 179 212 198 229 250 239 252 256 258 270 234 230 220 181 192 190 179 203 197 192 218 206 178 204 235 243 248 232 258 239 255 242 235 207 214 215 211 185 193 179 171 153 194 193 214 138 180 184 197 183 211 186 187 190 191 165 216 205 305 402 406 428 480 530 555 593 606 620 639 649 654 668 723 750 748 728 814 764 792 763 733 717 741 693 739 753 889 1097 1009 760 641 447 599 598 646 617 670 629 638 606 658 587 600 557 589 584 604 556 568 529 612 568 552 539 551 527 538 505 506 442 478 411 416 388 399 364 391 340 361 355 333 323 337 317 325 271 306 259 274 255 234 202 196 180 184 140 129 110 137 110 119 110 106 95 94 45 84 69 62 35 34 15 30 0 0 -10 7 0 13 1 7 -10 -1 -6 12 -7 10 -1 25 2 53 -10 -44 -57 -76 -97 -83 -126 -63 -35 160 403 204 -14 -135 -300 -207 -211 -170 -172 -167 -173 -185 -176 -174 -199 -167 -170 -161 -160 -139 -147 -173 -133 -143 -171 -148 -166 -133 -129 -146 -165 -157 -184 -176 -208 -222 -232 -247 -255 -244 -253 -218 -234 -203 -212 -209 -228 -222 -245 -216 -270 -290 -307 -269 -310 -304 -322 -319 -356 -321 -339 -322 -343 -302 -351 -333 -350 -343 -350 -360 -362 -346 -392 -374 -377 -365 -380 -367 -341 -313 -328 -260 -308 -347 -348 -365 -376 -356 -352 -374 -298 -90 116 40 -172 -361 -523 -460 -399 -366 -353 -357 -382 -358 -373 -379 -371 -330 -354 -358 -340 -334 -337 -297 -305 -292 -304 -301 -314 -300 -314 -304 -350 -356 -384 -381 -408 -392 -407 -385 -399 -366 -364 -335 -345 -312 -310 -284 -307 -287 -292 -274 -328 -319 -318 -311 -330 -329 -337 -316 -325 -308 -333 -326 -330 -354 -364 -355 -371 -360 -372 -362 -358 -377 -381 -368 -378 -397 -359 -369 -365 -359 -366 -385 -355 -361 -354 -365 -359 -358 -344 -353 -305 -334 -279 -310 -233 -226 -289 -214 -269 -250 -324 -312 -313 -313 -314 -259 -190 45 275 39 -232 -374 -464 -326 -331 -259 -291 -281 -284 -253 -276 -237 -251 -217 -223 -212 -205 -161 -202 -159 -175 -137 -183 -146 -186 -217 -179 -203 -251 -244 -231 -233 -246 -257 -252 -249 -239 -232 -254 -232 -232 -205 -200 -253 -218 -218 -219 -188 -235 -223 -237 -226 -245 -258 -253 -240 -265 -248 -269 -263 -281 -262 -270 -242 -259 -247 -263 -248 -288 -285 -266 -234 -238 -246 -262 -219 -246 -209 -243 -248 -253 -224 -239 -213 -233 -206 -238 -215 -222 -221 -232 -209 -211 -241 -218 -176 -228 -152 -165 -200 -226 -224 -253 -255 -237 -239 -191 18 96 156 -56 -271 -397 -384 -285 -249 -250 -225 -246 -227 -233 -176 -215 -200 -172 -186 -205 -171 -172 -142 -169 -128 -149 -149 -138 -102 -127 -104 -134 -110 -169 -143 -173 -198 -185 -164 -176 -172 -184 -141 -162 -141 -147 -125 -158 -151 -150 -162 -183 -175 -175 -156 -177 -172 -199 -189 -202 -172 -188 -169 -199 -236 -218 -214 -211 -230 -214 -179 -202 -183 -202 -193 -208 -186 -186 -218 -223 -220 -219 -176 -216 -193 -187 -178 -184 -132 -154 -118 -107 -132 -183 -192 -207 -191 -193 -235 -198 -77 48 303 170 -39 -215 -306 -264 -243 -207 -194 -202 -179 -192 -204 -216 -178 -175 -211 -173 -146 -186 -141 -143 -127 -134 -135 -119 -153 -145 -106 -110 -122 -136 -137 -161 -153 -169 -161 -167 -147 -146 -123 -143 -143 -116 -91 -110 -90 -94 -86 -91 -98 -107 -128 -109 -118 -137 -101 -129 -123 -177 -144 -160 -156 -150 -193 -177 -152 -195 -212 -178 -167 -186 -157 -187 -185 -134 -130 -144 -96 -101 -168 -175 -189 -180 -189 -162 -192 -140 21 218 351 81 -191 -272 -251 -174 -200 -162 -123 -118 -109 -108 -91 -87 -91 -92 -55 -86 -87 -45 -59 -30 -31 -19 -5 -54 -4 -20 -15 -35 -31 -55 -53 -91 -142 -131 -65 -82 -67 -70 -58 -65 -93 -89 -64 -62 -45 -52 -33 -46 -8 -49 -66 -36 -58 -41 -75 -48 -26 -56 -43 -50 -37 -51 -46 -55 -19 -63 -46 -39 -45 -87 -102 -80 -56 -56 -55 -55 -43 -85 -103 -50 -29 -24 -55 -46 -45 -43 -27 -43 -38 -16 23 16 -66 35 30 -28 -2 -17 24 -30 -60 1 57 279 596 452 104 -139 -189 -42 4 29 50 78 68 74 88 54 73 46 81 109 113 97 138 117 154 159 145 118 144 147 100 98 108 55 64 52 56 49 30 32 27 31 19 65 56 7 56 74 81 67 93 80 101 91 73 63 73 59 84 74 62 62 79 80 82 26 101 104 21 33 55 96 89 90 69 9 84 52 1 62 4 39 65 42 38 26 47 24 17 29 7 13 6 46 46 -5 42 36 -45 13 48 48 53 71 87 80 137 111 31 76 65 27 32 23 23 76 252 485 381 105 -72 -134 -71 -9 2 32 39 40 41 54 18 11 12 41 63 59 66 69 52 113 101 100 100 73 63 111 113 90 16 36 42 26 11 21 17 0 2 35 51 42 6 70 59 40 70 64 -10 32 23 27 27 22 6 3 -17 -12 -10 23 -11 6 -35 -22 -30 -17 -48 -35 -68 -64 -61 -51 -84 -73 -83 -59 -55 -63 -91 -71 -101 -53 -76 -65 -76 -46 -20 -28 5 31 -8 -3 -65 -33 -84 -30 -88 -36 176 333 455 175 -38 -131 -163 -32 -55 -13 -24 14 9 3 -12 44 43 40 57 47 54 78 72 100 48 72 73 91 77 61 45 78 60 38 6 30 -9 -7 -13 2 -16 3 -25 20 5 32 19 62 48 43 42 30 45 48 10 0 -14 16 8 12 2 23 6 5 -21 -1 -20 5 -33 -22 -57 -16 -40 -22 -34 -57 -74 
