ADC Sampling rate (Hz):
100
Fragment duration (sec):
20
Number of samples exported by each lead:
1999

#I[uV]
-18780 -17347 -15011 -13066 -11290 -9795 -7487 -6109 -3698 -1820 1 -4 -31 0 -9 -2 30 -16 14 -1 14 13 -45 8 14 -12 15 25 -5 3 8 1 -3 18 42 22 22 22 -6 7 41 16 31 -1 -9 18 25 33 69 28 37 33 -5 2 -22 13 -17 40 70 120 386 -5 -295 -25 -76 -54 24 -55 -46 -50 3 -6 0 -20 -19 -1 8 13 15 20 62 41 62 26 55 5 -45 -13 -74 -40 -49 -36 -52 -49 -27 -52 -65 -50 -41 -31 -12 -25 -26 -21 -26 -19 -30 -32 0 -14 -17 -20 -30 -22 -7 -25 -48 -23 -12 -16 -7 -16 -42 -7 26 4 -41 14 -1 27 4 32 100 26 9 30 -33 39 81 33 1 39 16 37 74 50 22 41 0 39 58 37 3 42 -28 40 -37 32 250 -9 -185 -18 -239 -62 -79 -95 -132 -83 -118 -47 -121 -41 -99 -34 -20 -20 -38 -8 32 8 100 16 -79 24 27 8 -33 -19 -127 -31 -69 -38 -69 -34 33 -30 14 -21 50 -24 25 -14 -101 -25 39 -23 49 -13 56 -33 37 -18 65 -10 6 -7 15 -5 54 -5 44 -1 -9 -6 -19 -12 9 -6 29 6 42 2 -14 5 8 11 10 3 16 13 6 25 12 22 27 30 15 29 45 28 31 30 13 31 16 48 40 23 179 -4 170 -28 -438 -54 -110 -78 -47 -126 5 -127 -68 -100 -87 -75 -88 -56 -62 -56 -45 -41 -12 -29 -3 -40 -17 -43 -53 -54 -87 -60 -86 -58 -89 -69 -84 -62 -52 -63 -47 -61 -56 -47 -56 -53 -50 -45 -54 -43 -55 -42 -52 -50 -44 -41 -57 -47 -19 -36 -31 -40 -34 -33 -40 -39 -39 -34 -30 -24 -38 -27 -10 -11 -8 -17 -28 -16 0 -15 -15 -20 -5 -2 -8 2 19 6 3 -4 10 7 -18 27 21 32 118 32 109 9 51 0 -159 -29 -119 -79 -52 -68 -17 -52 -25 -42 -38 -9 -41 -3 -18 8 18 8 40 19 39 7 17 -13 -34 -25 -73 -35 -77 -44 -76 -59 -66 -66 -40 -43 -30 -36 -39 -37 -28 -25 -38 -23 -25 -35 -22 -30 -16 -18 -18 -27 -31 -25 -44 -33 -40 -28 -16 -28 -32 -27 -15 -23 -24 -9 -14 -12 -4 9 4 -13 1 -10 -11 -4 -32 11 4 2 75 8 49 198 26 -25 -30 -62 -36 -27 7 -10 6 10 -5 27 9 31 32 41 49 63 82 63 75 62 67 25 36 9 -1 -20 -57 -27 -31 -25 -21 -25 -1 -19 -10 -19 45 -13 56 -17 -10 -7 -16 -17 -20 -3 -18 -19 -21 -10 -34 -21 -4 0 -12 -1 17 0 -2 -12 -23 4 12 -2 -8 0 79 -2 99 7 122 22 -4 9 162 -27 -354 -59 -170 -85 41 -68 -25 -51 4 -40 -83 -44 -66 -25 -32 -12 -18 16 85 32 136 14 -20 -2 -21 -34 -55 -48 -61 -58 -202 -43 -92 -52 -168 -36 -68 -49 -56 -47 -38 -27 -55 -32 -59 -34 -144 -34 15 -28 -68 -37 -47 -29 -45 -23 -36 -36 -77 -26 -106 -18 -94 -5 -6 -1 0 -10 8 -10 -24 -12 -4 -10 5 -39 -79 -71 262 475 51 -143 -213 -128 -66 -98 -16 -46 -73 -27 -75 -45 -67 -36 -9 -27 -26 -2 -14 16 11 16 37 -1 13 -38 -47 -54 -62 -44 -70 -27 -17 -41 -19 -31 -42 -36 -48 -28 -8 -25 -27 -28 -29 -25 -23 -23 -14 -27 -10 -28 -6 -15 -26 -9 -9 -4 -14 -8 -14 -9 0 -14 -19 -10 -13 -15 -9 -5 -3 -8 9 -16 7 -33 -11 10 35 9 14 -1 -17 0 17 -26 54 -37 -88 -12 383 583 -20 -188 -216 -172 -90 -80 0 -28 -24 -19 -51 -37 -18 -9 -37 -67 -10 29 56 69 13 109 56 40 -11 -22 32 -19 -21 -29 -26 -10 -38 -37 11 -12 -23 -7 7 -27 -49 -14 -34 -46 -110 -5 -20 -27 53 -5 -1 -16 33 -23 -6 -8 20 46 0 -10 -16 -2 73 29 57 -4 29 14 -39 18 -64 48 37 73 52 13 71 -20 -19 13 -67 17 1 79 -82 11 42 42 46 7 39 0 16 -56 -47 225 366 177 -166 -125 -81 -66 -47 51 56 26 -36 12 -9 22 -16 23 -30 7 2 123 -11 102 28 105 70 77 -33 -25 -25 -36 -24 -31 -18 -8 45 -9 -42 -24 -3 33 16 -20 -28 16 -28 -45 -14 11 -1 16 -11 -7 -3 -28 1 -13 -8 10 -5 21 9 -30 -16 60 5 -28 12 55 11 8 2 41 7 -23 10 22 8 2 8 5 37 58 32 38 28 -5 24 51 26 -41 19 -101 8 306 160 35 -24 -240 -78 -81 -84 -12 -48 -39 -34 -59 -19 39 -13 -38 -13 9 7 29 24 64 50 102 27 -34 5 -24 -15 -35 -19 -70 -35 -23 -36 -64 -38 22 -13 -1 -17 0 -6 16 -10 -88 -18 -16 -5 26 -13 -26 -21 -9 -3 -39 -4 19 -2 -21 7 15 8 13 7 20 10 3 18 1 10 15 20 17 10 16 3 6 4 43 21 17 22 29 20 7 29 50 39 28 50 64 51 9 39 39 36 21 53 -16 47 60 35 307 -4 -508 -64 -212 -80 -30 -136 -67 -140 -107 -95 -60 -72 -116 -71 -76 -62 -87 -52 -36 -45 -58 -38 -78 -41 -136 -32 -79 -56 -117 -73 -82 -78 -195 -73 -89 -83 -162 -59 -111 -60 -68 -56 -58 -51 -201 -53 -136 -51 -90 -49 -5 -43 5 -39 -14 -41 21 -41 -46 -43 -7 -33 -68 -34 -54 -23 -13 -27 11 -26 18 -11 -115 -26 35 -5 69 -14 0 -14 15 -4 -31 0 16 2 17 0 29 16 73 21 -2 9 5 18 -4 28 49 55 27 42 155 19 176 34 -207 1 -1 -21 -68 -60 -35 -42 2 -24 15 -9 -1 7 5 15 29 31 62 22 54 16 37 11 15 -7 -21 -24 -27 -40 -44 -42 -46 -43 -48 -39 -41 -41 -34 -28 -22 -34 -34 -32 -31 -27 -34 -39 -20 -34 -39 -29 -43 -26 -34 -28 -32 -28 -30 -16 -20 -22 -22 -22 -35 -25 -18 -29 -31 -22 -23 -9 -23 -14 -19 -11 -10 2 10 -7 12 2 22 -7 8 -7 -17 4 -17 23 84 20 118 -9 82 -9 -308 -44 -79 -79 -49 -86 -13 -78 -41 -49 -45 -28 -36 -18 -22 -2 18 2 47 10 43 1 30 -11 -18 -31 -53 -51 -83 -54 -73 -75 -66 -73 -74 -69 -62 -61 -64 -52 -58 -56 -56 -44 -57 -44 -45 -53 -37 -42 -56 -45 -45 -42 -36 -39 -37 -43 -41 -37 -34 -43 -35 -37 -36 -39 -30 -36 -40 -26 -32 -24 -43 -24 -19 -24 -2 -20 -14 -9 -33 -24 -38 -21 -5 -10 82 -12 98 154 43 -52 -198 -81 -104 -93 -54 -89 -44 -57 -59 -50 -59 -39 -40 -28 -31 0 -9 -10 20 11 24 0 8 -13 -22 -27 -39 -34 -75 -51 -69 -64 -54 -54 -50 -56 -46 -47 -48 -43 -49 -37 -19 -40 -47 -41 -29 -35 -46 -36 -26 -26 -23 -35 -28 -34 -16 -32 -20 -29 -21 -20 -30 -32 -24 -17 -39 -20 -15 -11 0 -14 -28 -11 2 0 3 8 11 -4 9 -1 -27 1 -18 2 -2 0 94 7 89 -4 143 -57 -511 -109 -261 -137 -11 -126 -11 -92 -38 -74 -32 -71 -52 -69 -73 -53 -23 -29 86 -15 131 -26 116 -37 -44 -59 -150 -75 -116 -64 -44 -69 -151 -60 -139 -59 -126 -56 -143 -49 4 -44 -35 -35 -132 -38 -90 -22 34 -25 -120 -20 -170 -10 1 -16 -132 -18 -94 -16 19 0 18 -4 1 -10 25 -9 1 13 -22 11 -80 18 50 22 64 12 -14 12 59 24 1 22 85 30 -26 0 265 183 -109 -30 -118 -64 21 -18 64 20 3 37 16 29 16 42 55 50 39 76 108 96 120 70 62 31 24 -8 -15 -20 -21 -16 -15 -13 -53 -24 5 -14 -9 -15 11 7 -1 2 8 -11 18 -5 5 -3 -18 1 39 5 5 -7 -19 12 -1 21 57 5 15 -4 -9 8 12 18 49 11 18 8 -9 3 49 15 30 -3 -33 46 332 191 -161 -93 -137 -78 27 -23 11 8 -5 20 -20 19 2 10 25 7 24 44 57 59 69 56 52 23 48 -8 -36 -17 -28 -20 45 -8 25 -16 -81 -14 7 -4 31 -24 -12 -6 -6 -11 0 12 2 0 10 -40 9 -6 -5 -1 73 14 26 11 38 -39 97 -13 -10 0 108 15 59 44 56 31 9 54 174 57 53 10 80 -8 -54 -9 71 -144 -18 186 365 120 -148 -173 -58 -88 -7 -63 -22 2 73 8 -33 13 -70 12 -38 11 -31 77 65 122 126 91 80 75 -6 -22 -40 22 -43 -13 -33 25 -73 -18 -43 -8 -21 81 -63 34 11 13 54 7 -11 99 28 92 26 6 -27 38 18 69 20 19 6 51 7 -43 19 20 27 87 5 25 -19 120 37 49 1 47 24 30 40 31 49 144 55 44 26 114 35 13 40 -28 35 -81 65 500 14 -511 -106 -347 -176 -92 -144 1 -82 -124 -79 -129 -67 -59 -70 -49 -54 -36 -44 4 -37 -5 -6 -20 -9 -27 -33 -62 -59 -69 -63 -46 -70 -113 -60 -55 -61 -13 -59 -71 -48 -42 -48 -55 -47 -46 -51 -11 -36 -65 -31 -30 -39 -33 -28 -4 -29 -51 -29 -24 -37 -25 -30 8 -13 -7 -15 -14 -5 -33 -16 4 -17 20 -14 44 -4 15 3 32 -15 -3 -32 -54 29 88 7 430 -5 -378 -26 -61 -60 17 -65 -34 -52 -15 -32 10 -34 -33 -35 53 -9 -13 18 10 28 82 34 11 27 10 5 -15 -16 -59 -24 -34 -19 -29 -10 24 -13 -17 -8 25 4 -34 -1 -25 6 25 12 -14 -1 -63 14 -52 10 -30 26 -80 12 147 10 50 25 115 22 86 26 117 26 8 24 3 43 35 27 23 22 181 2 299 -6 -468 -49 -97 -50 -14 -81 -144 -74 -33 -50 -47 -35 -6 -32 66 -30 -39 -2 -23 8 58 4 69 4 42 5 -96 -33 -40 -49 27 -52 55 -51 -27 -32 34 -23 -56 -20 55 -23 27 -19 67 -23 14 -19 -1 -16 -72 -22 4 -21 72 -20 -75 -6 12 -10 -10 -2 -7 -13 -25 1 8 11 16 7 26 18 -5 25 24 38 0 19 37 7 80 -15 141 -35 -332 -61 -150 -72 -66 -108 -58 -121 -63 -101 -66 -68 -60 -70 -60 -59 -32 -50 -25 -40 8 -36 1 -37 -32 
#II[uV]
98416 87532 78613 67766 58823 47915 39050 28243 19274 8501 -587 -557 -576 -561 -583 -549 -550 -555 -562 -538 -523 -525 -557 -517 -538 -517 -538 -505 -538 -504 -506 -513 -526 -497 -507 -492 -491 -489 -528 -498 -458 -483 -505 -497 -516 -491 -491 -468 -476 -474 -491 -467 -472 -502 -568 -486 -631 -435 -465 -355 487 -530 -1276 -582 -733 -658 -493 -637 -564 -597 -519 -533 -503 -534 -505 -517 -533 -486 -472 -463 -377 -446 -443 -445 -402 -479 -518 -517 -623 -547 -568 -556 -576 -551 -525 -545 -556 -547 -530 -534 -525 -523 -524 -532 -533 -527 -555 -535 -541 -522 -530 -524 -524 -524 -518 -530 -575 -532 -512 -526 -529 -518 -467 -499 -465 -494 -485 -480 -467 -469 -527 -489 -419 -482 -439 -482 -459 -482 -415 -481 -462 -485 -473 -485 -421 -490 -410 -488 -433 -493 -410 -503 -409 -500 -441 -458 -426 -487 -34 -563 -665 -538 -968 -625 -602 -683 -536 -664 -550 -609 -541 -576 -551 -571 -458 -547 -464 -522 -392 -503 -327 -490 -438 -504 -463 -533 -515 -564 -574 -590 -528 -597 -520 -603 -483 -592 -483 -579 -450 -584 -511 -574 -547 -588 -503 -580 -463 -582 -481 -589 -506 -569 -467 -564 -514 -571 -548 -567 -488 -562 -504 -555 -551 -560 -555 -558 -544 -560 -513 -554 -475 -526 -518 -523 -521 -515 -524 -529 -544 -527 -544 -520 -526 -514 -506 -500 -491 -496 -484 -495 -495 -489 -527 -489 -531 -471 -472 -503 -289 -553 -328 -591 -1067 -642 -813 -681 -717 -747 -623 -763 -656 -698 -664 -649 -668 -632 -631 -616 -607 -587 -554 -567 -524 -571 -541 -583 -578 -603 -658 -608 -675 -627 -675 -641 -653 -630 -627 -623 -609 -621 -613 -608 -617 -612 -605 -600 -614 -599 -614 -598 -585 -612 -586 -606 -605 -607 -587 -599 -588 -605 -587 -605 -601 -600 -593 -605 -584 -606 -583 -611 -558 -571 -556 -567 -551 -552 -536 -547 -542 -545 -534 -528 -513 -520 -492 -524 -514 -544 -524 -528 -562 -498 -529 -491 -361 -509 -339 -536 -523 -569 -716 -608 -771 -663 -698 -683 -604 -664 -590 -643 -605 -605 -623 -580 -600 -567 -541 -552 -502 -543 -479 -552 -515 -562 -598 -593 -652 -617 -654 -628 -642 -640 -622 -635 -602 -611 -587 -597 -583 -597 -571 -579 -574 -571 -560 -573 -539 -572 -530 -575 -531 -573 -541 -563 -564 -565 -569 -562 -563 -561 -566 -563 -547 -556 -537 -553 -529 -558 -526 -543 -562 -505 -551 -522 -558 -510 -578 -473 -510 -477 -393 -479 -426 -287 -497 -509 -625 -537 -638 -516 -520 -538 -501 -496 -492 -466 -484 -455 -464 -433 -437 -399 -396 -405 -376 -407 -394 -440 -450 -471 -512 -538 -581 -540 -542 -551 -526 -546 -512 -543 -535 -532 -490 -530 -447 -534 -523 -524 -511 -527 -510 -518 -495 -515 -514 -511 -496 -516 -491 -501 -534 -497 -480 -486 -475 -476 -437 -468 -439 -480 -486 -480 -393 -473 -396 -467 -348 -447 -338 -478 -158 -548 -986 -559 -671 -633 -437 -598 -446 -546 -485 -525 -445 -522 -459 -506 -364 -467 -436 -436 -320 -414 -311 -452 -384 -478 -407 -519 -443 -548 -486 -551 -590 -537 -488 -535 -495 -523 -495 -525 -482 -520 -555 -509 -434 -521 -440 -513 -505 -520 -456 -525 -489 -528 -528 -523 -476 -514 -515 -521 -471 -515 -592 -498 -474 -486 -466 -478 -445 -492 -474 -488 -532 -497 -487 -492 -420 -495 -551 -521 -126 101 -310 -692 -1004 -734 -583 -671 -483 -556 -543 -522 -592 -535 -550 -523 -502 -494 -482 -461 -510 -430 -381 -470 -472 -495 -450 -544 -534 -571 -655 -576 -564 -571 -543 -574 -564 -557 -592 -547 -522 -539 -506 -553 -608 -549 -517 -546 -541 -531 -547 -522 -498 -529 -520 -512 -501 -497 -500 -491 -495 -490 -502 -486 -474 -488 -501 -485 -450 -521 -506 -535 -537 -517 -450 -492 -453 -494 -453 -467 -477 -497 -450 -481 -488 -480 -446 -509 -429 -526 -603 -515 1 267 -482 -869 -920 -783 -570 -638 -589 -511 -515 -513 -539 -550 -571 -497 -511 -531 -506 -456 -434 -427 -418 -365 -368 -434 -455 -580 -621 -583 -538 -542 -546 -558 -553 -552 -538 -573 -506 -569 -595 -538 -556 -539 -546 -584 -678 -585 -531 -606 -652 -613 -637 -583 -506 -572 -514 -562 -674 -509 -519 -589 -617 -597 -583 -488 -509 -519 -502 -512 -650 -495 -575 -475 -493 -565 -571 -491 -537 -511 -586 -461 -554 -480 -530 -440 -573 -519 -588 -500 -544 -489 -580 -556 -588 -593 -558 -362 6 70 -772 -984 -667 -723 -617 -518 -494 -496 -605 -489 -552 -530 -582 -484 -565 -454 -487 -384 -494 -377 -415 -347 -438 -402 -511 -559 -522 -556 -530 -554 -532 -631 -535 -528 -543 -514 -555 -543 -482 -532 -526 -526 -518 -526 -497 -515 -501 -604 -540 -506 -516 -522 -502 -590 -501 -488 -546 -557 -488 -492 -499 -521 -496 -556 -492 -478 -512 -500 -468 -439 -463 -457 -469 -549 -479 -447 -460 -469 -423 -392 -451 -436 -446 -485 -455 -503 -458 -508 -459 -603 -431 -177 -221 -130 -552 -1033 -635 -615 -579 -473 -523 -573 -532 -524 -506 -439 -486 -488 -470 -457 -455 -494 -450 -349 -398 -372 -417 -462 -443 -519 -510 -594 -544 -559 -554 -524 -546 -547 -533 -429 -506 -528 -503 -453 -499 -501 -518 -498 -507 -498 -486 -459 -487 -479 -494 -492 -488 -497 -507 -535 -507 -499 -494 -486 -506 -447 -523 -517 -506 -488 -484 -458 -473 -459 -466 -495 -478 -447 -477 -448 -472 -473 -470 -444 -464 -424 -461 -450 -446 -338 -444 -381 -442 -410 -431 -446 -458 -443 -491 -473 -454 -541 -458 -317 -491 225 -576 -1387 -621 -924 -710 -597 -760 -642 -750 -707 -694 -595 -653 -669 -652 -609 -622 -615 -601 -581 -568 -475 -565 -497 -571 -581 -588 -654 -626 -674 -643 -634 -650 -644 -651 -602 -637 -613 -611 -593 -599 -548 -589 -531 -595 -600 -590 -600 -596 -499 -586 -448 -575 -501 -578 -459 -578 -506 -588 -509 -597 -510 -609 -505 -596 -495 -586 -541 -581 -463 -575 -514 -573 -532 -576 -531 -558 -454 -565 -529 -551 -515 -550 -522 -543 -527 -537 -527 -542 -500 -528 -468 -517 -504 -523 -519 -516 -547 -507 -492 -478 -506 -481 -332 -531 -284 -520 -809 -570 -602 -603 -621 -641 -557 -624 -591 -604 -580 -577 -572 -570 -545 -545 -523 -517 -463 -503 -448 -512 -475 -518 -534 -546 -593 -576 -598 -587 -599 -592 -577 -582 -555 -574 -547 -560 -549 -552 -539 -550 -541 -548 -538 -545 -543 -547 -524 -540 -549 -551 -536 -541 -538 -541 -544 -536 -553 -535 -541 -535 -533 -527 -539 -524 -520 -520 -514 -511 -504 -506 -509 -515 -513 -501 -501 -503 -484 -501 -472 -488 -469 -501 -471 -484 -509 -457 -506 -445 -325 -477 -255 -503 -432 -539 -851 -596 -746 -642 -684 -672 -582 -665 -574 -618 -593 -573 -592 -555 -583 -540 -527 -520 -471 -506 -454 -506 -476 -521 -538 -548 -595 -571 -637 -590 -625 -605 -610 -599 -610 -589 -588 -599 -555 -585 -562 -567 -557 -562 -559 -558 -553 -563 -552 -556 -555 -557 -532 -549 -534 -553 -531 -564 -532 -544 -536 -547 -532 -539 -538 -545 -535 -537 -527 -522 -521 -517 -510 -518 -488 -521 -477 -518 -492 -513 -531 -512 -544 -490 -502 -474 -335 -488 -315 -327 -435 -547 -743 -600 -675 -652 -584 -630 -550 -575 -550 -549 -557 -526 -546 -499 -514 -470 -463 -471 -421 -457 -425 -472 -456 -506 -515 -503 -575 -532 -600 -568 -601 -578 -594 -572 -587 -566 -568 -558 -554 -546 -561 -540 -563 -534 -578 -551 -541 -541 -527 -535 -514 -517 -517 -521 -512 -517 -508 -523 -513 -516 -510 -509 -513 -511 -514 -509 -504 -506 -489 -491 -463 -490 -478 -479 -465 -464 -458 -456 -453 -469 -451 -478 -480 -463 -467 -433 -482 -448 -366 -454 -310 -490 -238 -569 -1094 -621 -761 -689 -477 -645 -491 -591 -491 -568 -491 -543 -521 -525 -516 -509 -439 -475 -330 -453 -290 -469 -322 -498 -412 -539 -484 -577 -555 -578 -579 -618 -507 -609 -519 -584 -597 -574 -577 -559 -390 -547 -392 -545 -526 -555 -480 -550 -400 -561 -539 -610 -584 -586 -473 -567 -509 -557 -483 -543 -439 -533 -466 -540 -477 -543 -433 -532 -466 -504 -506 -503 -534 -501 -351 -498 -434 -509 -485 -516 -469 -509 -508 -527 -444 -500 -587 -493 -100 -350 -662 -557 -769 -657 -561 -596 -432 -513 -500 -489 -488 -501 -584 -480 -440 -464 -442 -427 -355 -401 -468 -418 -353 -466 -522 -513 -511 -547 -544 -543 -521 -544 -639 -547 -511 -544 -527 -537 -487 -528 -610 -516 -495 -518 -491 -519 -522 -523 -529 -529 -560 -524 -512 -530 -528 -518 -517 -517 -499 -517 -498 -524 -591 -507 -478 -493 -452 -508 -518 -507 -544 -517 -475 -509 -462 -544 -680 -454 112 -156 -786 -709 -793 -683 -435 -592 -547 -474 -482 -477 -471 -495 -594 -511 -462 -503 -444 -443 -392 -430 -479 -480 -488 -491 -460 -540 -568 -565 -542 -572 -677 -568 -576 -577 -569 -576 -617 -541 -545 -559 -557 -542 -553 -544 -557 -515 -528 -560 -546 -558 -534 -519 -524 -520 -485 -539 -507 -522 -596 -558 -603 -557 -454 -539 -628 -516 -486 -519 -497 -505 -515 -496 -464 -484 -565 -579 -541 -586 -727 -595 -729 -700 -587 -371 9 -152 -909 -879 -794 -684 -638 -577 -619 -563 -593 -584 -671 -655 -687 -577 -593 -592 -591 -484 -497 -407 -480 -465 -503 -521 -584 -674 -614 -629 -614 -593 -560 -600 -675 -599 -605 -587 -538 -535 -634 -594 -535 -656 -542 -589 -558 -544 -528 -552 -535 -636 -611 -561 -543 -542 -526 -570 -565 -555 -520 -648 -574 -637 -527 -524 -530 -554 -549 -511 -497 -571 -527 -513 -505 -589 -496 -519 -458 -444 -479 -518 -513 -496 -508 -613 -531 -589 -513 -627 -446 95 -478 -1232 -733 -1081 -820 -673 -760 -637 -680 -722 -659 -768 -666 -640 -645 -643 -609 -597 -592 -602 -559 -539 -529 -532 -583 -638 -611 -646 -609 -639 -625 -660 -629 -675 -645 -633 -617 -583 -607 -621 -599 -608 -604 -620 -615 -608 -622 -618 -608 -612 -583 -586 -586 -601 -593 -570 -598 -596 -597 -607 -610 -608 -602 -549 -583 -574 -584 -573 -573 -577 -575 -581 -565 -488 -565 -537 -565 -568 -582 -557 -586 -573 -581 -696 -506 -495 -537 403 -596 -1326 -625 -811 -681 -525 -685 -601 -654 -593 -620 -597 -614 -582 -617 -550 -583 -555 -538 -552 -530 -443 -512 -506 -533 -577 -566 -629 -599 -632 -618 -638 -605 -605 -601 -575 -598 -591 -592 -559 -573 -560 -574 -576 -567 -548 -556 -569 -566 -515 -547 -544 -543 -513 -539 -539 -552 -385 -528 -487 -531 -408 -516 -375 -513 -381 -521 -491 -521 -487 -528 -538 -513 -506 -510 -392 -577 34 -621 -1295 -659 -849 -681 -579 -733 -608 -715 -603 -669 -540 -637 -557 -628 -466 -625 -479 -575 -479 -562 -474 -565 -471 -558 -456 -577 -599 -608 -584 -625 -524 -634 -514 -640 -559 -650 -517 -603 -556 -596 -497 -591 -519 -583 -515 -591 -577 -595 -577 -598 -585 -594 -563 -604 -510 -610 -605 -583 -567 -579 -591 -573 -584 -572 -588 -559 -546 -548 -535 -548 -542 -537 -579 -534 -559 -521 -564 -536 -505 -543 -439 -599 -409 -626 -1020 -677 -879 -686 -725 -732 -667 -741 -649 -699 -657 -648 -645 -650 -641 -635 -608 -616 -582 -604 -538 -606 -555 -605 -612 
#III[uV]
117197 104879 93624 80833 70114 57711 46537 34352 22972 10322 -588 -553 -545 -561 -574 -546 -581 -538 -576 -537 -538 -538 -512 -525 -553 -504 -553 -530 -533 -507 -514 -515 -522 -516 -550 -515 -513 -511 -521 -505 -500 -499 -537 -496 -507 -509 -516 -501 -545 -503 -529 -500 -466 -504 -545 -499 -614 -476 -536 -475 101 -524 -981 -556 -657 -603 -518 -582 -518 -547 -522 -526 -504 -513 -485 -515 -542 -500 -488 -484 -440 -488 -506 -471 -457 -484 -473 -504 -549 -506 -519 -519 -523 -502 -497 -492 -490 -497 -488 -503 -513 -498 -498 -511 -507 -508 -524 -502 -541 -508 -512 -503 -493 -501 -511 -504 -527 -509 -499 -509 -521 -501 -424 -492 -491 -498 -443 -494 -466 -497 -532 -522 -520 -508 -449 -512 -426 -522 -496 -514 -463 -524 -489 -522 -495 -541 -432 -530 -434 -533 -469 -540 -413 -543 -412 -499 -388 -520 -285 -553 -480 -519 -729 -562 -522 -588 -403 -581 -432 -561 -420 -535 -452 -536 -437 -526 -425 -513 -425 -511 -428 -506 -358 -529 -490 -542 -481 -544 -446 -558 -459 -558 -451 -569 -517 -561 -498 -557 -501 -559 -537 -559 -445 -563 -542 -557 -513 -568 -537 -555 -544 -550 -533 -554 -521 -564 -563 -562 -543 -556 -549 -553 -542 -554 -535 -546 -553 -553 -543 -560 -517 -528 -503 -529 -529 -527 -535 -532 -560 -540 -550 -545 -538 -536 -533 -530 -506 -525 -529 -523 -527 -519 -540 -521 -548 -519 -513 -526 -469 -548 -498 -562 -629 -588 -703 -603 -669 -621 -629 -635 -587 -598 -577 -574 -580 -575 -569 -559 -562 -546 -542 -538 -520 -531 -524 -540 -525 -548 -571 -547 -589 -569 -585 -571 -569 -568 -575 -560 -561 -560 -556 -560 -560 -559 -555 -554 -560 -556 -558 -556 -532 -562 -541 -565 -548 -559 -567 -562 -557 -564 -552 -571 -561 -561 -553 -571 -553 -582 -544 -584 -547 -559 -548 -549 -523 -536 -535 -532 -526 -525 -528 -526 -504 -522 -512 -531 -518 -539 -534 -535 -544 -525 -550 -524 -479 -542 -448 -545 -575 -568 -556 -578 -651 -584 -646 -615 -586 -612 -564 -600 -567 -595 -581 -577 -581 -576 -560 -560 -543 -562 -518 -560 -532 -548 -563 -568 -579 -582 -577 -584 -565 -581 -555 -569 -561 -568 -556 -560 -544 -560 -542 -554 -535 -547 -534 -537 -516 -541 -514 -556 -513 -545 -509 -538 -520 -531 -529 -533 -547 -532 -533 -535 -531 -532 -512 -544 -514 -545 -521 -552 -567 -491 -553 -512 -547 -505 -546 -484 -514 -480 -469 -488 -476 -486 -523 -483 -595 -474 -601 -488 -527 -528 -507 -506 -486 -493 -494 -486 -496 -474 -486 -463 -479 -469 -451 -470 -462 -465 -487 -481 -510 -517 -523 -512 -511 -525 -504 -520 -510 -523 -524 -512 -536 -516 -503 -516 -512 -516 -495 -510 -490 -514 -476 -496 -493 -500 -462 -495 -486 -502 -521 -496 -498 -487 -472 -463 -414 -473 -452 -478 -478 -481 -472 -471 -496 -475 -471 -470 -334 -487 -320 -520 -631 -500 -501 -548 -479 -530 -420 -495 -489 -484 -362 -477 -393 -481 -332 -455 -417 -452 -406 -447 -448 -466 -363 -476 -385 -485 -388 -499 -424 -493 -387 -494 -395 -483 -327 -486 -426 -476 -425 -473 -516 -481 -379 -488 -380 -479 -361 -486 -471 -496 -421 -490 -480 -494 -430 -491 -478 -484 -393 -488 -486 -479 -379 -481 -459 -477 -445 -481 -482 -478 -507 -484 -482 -482 -426 -456 -472 -450 -388 -374 -361 -549 -790 -605 -516 -572 -467 -509 -469 -495 -516 -489 -483 -486 -493 -467 -456 -458 -496 -447 -392 -487 -509 -493 -464 -506 -486 -516 -592 -532 -493 -543 -526 -533 -545 -525 -549 -510 -474 -511 -497 -527 -581 -521 -487 -521 -518 -508 -533 -495 -487 -500 -514 -496 -474 -488 -490 -486 -481 -481 -488 -477 -475 -473 -481 -474 -437 -506 -496 -530 -534 -509 -459 -476 -460 -461 -441 -477 -512 -507 -464 -479 -471 -480 -463 -483 -483 -488 -515 -502 -381 -315 -462 -681 -704 -611 -479 -557 -589 -483 -490 -493 -488 -512 -553 -488 -474 -463 -495 -486 -491 -497 -431 -475 -424 -474 -443 -558 -653 -563 -516 -513 -520 -548 -515 -514 -550 -561 -482 -562 -602 -511 -506 -525 -511 -537 -567 -579 -511 -578 -706 -607 -636 -567 -539 -549 -508 -553 -694 -555 -519 -578 -600 -594 -657 -517 -566 -515 -531 -526 -611 -513 -511 -524 -530 -638 -624 -505 -609 -491 -566 -474 -486 -497 -531 -520 -490 -530 -631 -542 -591 -497 -620 -556 -604 -536 -510 -588 -360 -107 -606 -859 -586 -657 -569 -569 -550 -523 -569 -502 -543 -552 -565 -507 -534 -461 -490 -507 -482 -479 -444 -452 -508 -479 -477 -533 -496 -520 -505 -522 -513 -623 -580 -519 -500 -490 -551 -576 -499 -512 -497 -542 -490 -480 -483 -527 -500 -620 -529 -499 -513 -494 -503 -577 -493 -499 -540 -579 -498 -461 -483 -582 -502 -528 -505 -533 -523 -508 -471 -481 -471 -434 -479 -571 -487 -449 -469 -475 -460 -451 -484 -474 -475 -480 -479 -554 -484 -467 -479 -502 -440 -483 -381 -166 -528 -793 -556 -534 -495 -460 -474 -534 -497 -464 -486 -479 -473 -449 -457 -467 -463 -523 -475 -414 -448 -475 -444 -427 -449 -495 -495 -559 -524 -489 -518 -501 -509 -483 -494 -452 -492 -527 -485 -453 -493 -518 -507 -410 -488 -481 -481 -485 -474 -453 -473 -482 -485 -458 -503 -554 -504 -478 -501 -502 -514 -460 -531 -538 -517 -491 -503 -459 -483 -475 -486 -512 -488 -464 -481 -455 -477 -516 -492 -461 -486 -454 -481 -458 -476 -388 -483 -409 -492 -474 -482 -456 -498 -483 -528 -494 -507 -525 -505 -377 -527 -82 -572 -879 -557 -711 -629 -566 -624 -575 -610 -600 -598 -535 -580 -552 -581 -533 -560 -527 -549 -545 -522 -417 -527 -419 -529 -445 -556 -574 -570 -556 -569 -551 -572 -448 -578 -512 -553 -451 -551 -481 -538 -480 -533 -473 -543 -399 -537 -464 -545 -408 -536 -443 -531 -507 -538 -445 -537 -527 -547 -462 -553 -503 -575 -437 -561 -441 -562 -528 -554 -474 -549 -532 -562 -417 -549 -567 -553 -524 -551 -528 -537 -530 -546 -490 -544 -544 -540 -544 -543 -529 -544 -542 -539 -501 -533 -524 -535 -542 -536 -542 -534 -534 -524 -488 -551 -460 -554 -602 -572 -600 -581 -552 -581 -522 -581 -594 -579 -596 -568 -571 -578 -550 -560 -553 -549 -526 -525 -503 -528 -512 -529 -550 -539 -571 -551 -570 -547 -555 -550 -531 -539 -506 -535 -505 -518 -514 -523 -517 -515 -506 -516 -506 -518 -509 -507 -504 -506 -509 -522 -492 -515 -503 -512 -511 -508 -522 -518 -520 -513 -510 -504 -504 -499 -501 -491 -483 -488 -480 -496 -486 -500 -494 -489 -490 -506 -494 -493 -485 -491 -492 -493 -480 -477 -491 -462 -489 -468 -410 -498 -373 -494 -514 -530 -543 -552 -666 -563 -635 -586 -569 -586 -532 -569 -548 -544 -556 -537 -560 -538 -545 -523 -518 -516 -498 -507 -507 -510 -519 -517 -541 -520 -553 -535 -551 -530 -544 -525 -535 -520 -526 -538 -490 -533 -504 -511 -501 -518 -502 -514 -508 -509 -515 -513 -498 -512 -487 -507 -498 -513 -493 -520 -490 -506 -502 -503 -496 -502 -502 -505 -505 -500 -487 -496 -489 -492 -467 -493 -468 -496 -474 -497 -477 -503 -498 -487 -506 -468 -497 -464 -417 -476 -413 -482 -479 -495 -544 -518 -570 -558 -529 -541 -505 -518 -491 -498 -497 -487 -506 -471 -483 -470 -454 -460 -442 -469 -450 -473 -465 -492 -493 -475 -536 -497 -524 -516 -532 -514 -540 -517 -536 -510 -522 -510 -505 -503 -512 -502 -543 -494 -530 -509 -512 -506 -481 -499 -487 -491 -494 -486 -484 -483 -491 -490 -492 -486 -489 -489 -482 -478 -489 -492 -465 -486 -474 -480 -464 -475 -450 -468 -468 -464 -461 -465 -465 -464 -461 -477 -452 -464 -449 -435 -480 -448 -460 -461 -399 -486 -381 -511 -583 -511 -500 -552 -466 -519 -479 -499 -453 -493 -458 -472 -468 -456 -443 -455 -416 -446 -417 -437 -421 -442 -439 -461 -368 -480 -334 -502 -438 -513 -534 -549 -355 -549 -380 -524 -470 -518 -434 -509 -394 -502 -356 -510 -394 -517 -390 -527 -434 -535 -419 -590 -413 -575 -474 -550 -377 -538 -389 -526 -458 -532 -485 -536 -478 -533 -459 -522 -468 -518 -484 -515 -453 -519 -401 -520 -499 -521 -471 -529 -529 -534 -509 -550 -529 -531 -561 -493 -366 -533 -553 -527 -650 -592 -583 -578 -497 -533 -503 -526 -505 -530 -600 -523 -495 -515 -482 -504 -464 -498 -589 -488 -415 -498 -546 -505 -496 -526 -523 -526 -506 -530 -585 -523 -517 -529 -518 -521 -498 -535 -608 -519 -503 -507 -509 -513 -527 -519 -510 -530 -599 -530 -517 -523 -508 -530 -515 -539 -557 -523 -514 -519 -581 -516 -490 -512 -501 -519 -537 -515 -535 -520 -525 -525 -492 -540 -647 -501 -219 -347 -624 -615 -655 -604 -462 -569 -558 -482 -477 -498 -451 -514 -597 -522 -488 -510 -468 -488 -450 -490 -549 -537 -541 -514 -509 -532 -531 -547 -513 -551 -722 -560 -601 -560 -488 -561 -624 -537 -576 -535 -545 -535 -547 -533 -557 -527 -531 -559 -557 -518 -543 -513 -518 -518 -559 -553 -533 -534 -635 -518 -700 -543 -444 -539 -737 -531 -545 -564 -553 -537 -524 -550 -638 -541 -619 -590 -622 -578 -672 -586 -800 -555 -568 -557 -356 -273 -760 -706 -735 -596 -630 -513 -597 -566 -667 -592 -638 -668 -616 -589 -554 -604 -559 -561 -563 -530 -606 -556 -583 -597 -578 -652 -574 -652 -571 -580 -527 -626 -602 -580 -561 -578 -517 -616 -571 -628 -546 -669 -596 -596 -547 -644 -557 -645 -561 -643 -584 -600 -562 -612 -547 -589 -572 -606 -527 -605 -594 -658 -554 -611 -536 -579 -529 -632 -535 -621 -528 -561 -529 -619 -536 -550 -508 -588 -534 -562 -539 -611 -543 -627 -571 -560 -548 -546 -512 -405 -493 -720 -627 -734 -644 -581 -616 -638 -597 -597 -579 -638 -598 -581 -575 -594 -554 -560 -548 -607 -521 -534 -523 -512 -574 -610 -578 -583 -550 -570 -562 -613 -558 -562 -585 -578 -556 -570 -548 -550 -550 -566 -555 -565 -567 -561 -570 -607 -571 -547 -551 -555 -547 -567 -564 -565 -568 -544 -568 -583 -572 -583 -572 -558 -569 -566 -568 -559 -567 -543 -558 -586 -548 -508 -551 -581 -560 -583 -585 -589 -570 -570 -549 -642 -535 -583 -544 -26 -590 -948 -598 -750 -621 -543 -620 -566 -601 -577 -587 -608 -579 -548 -581 -604 -574 -542 -556 -563 -559 -525 -546 -518 -561 -588 -571 -614 -582 -572 -593 -604 -586 -575 -590 -599 -584 -573 -583 -585 -578 -525 -572 -550 -574 -573 -569 -555 -564 -452 -561 -491 -553 -483 -565 -459 -565 -533 -539 -537 -556 -523 -539 -461 -539 -499 -547 -500 -545 -491 -571 -573 -541 -530 -532 -573 -580 -264 -614 -826 -610 -751 -631 -565 -652 -463 -641 -570 -619 -493 -601 -551 -596 -532 -595 -439 -572 -455 -570 -533 -570 -540 -563 -499 -582 -503 -575 -544 -575 -552 -581 -570 -589 -532 -618 -552 -579 -500 -576 -552 -567 -546 -564 -583 -567 -592 -576 -575 -581 -513 -571 -567 -582 -582 -589 -530 -576 -579 -569 -580 -570 -576 -559 -563 -561 -555 -559 -551 -555 -568 -556 -573 -559 -583 -559 -564 -555 -542 -551 -519 -583 -551 -591 -688 -616 -729 -613 -658 -623 -608 -619 -585 -597 -591 -580 -585 -579 -581 -576 -575 -566 -557 -564 -547 -569 -557 -568 -580 
#avR[uV]
-39817 -35092 -31800 -27350 -23766 -19059 -15781 -11067 -7788 -3340 292 281 304 280 296 275 260 286 273 270 254 255 301 254 262 265 261 240 272 250 248 256 265 239 232 234 234 233 267 245 208 233 237 249 262 236 233 217 203 223 226 217 239 250 295 236 324 197 197 117 -436 267 786 304 404 356 234 346 305 324 258 269 251 277 262 259 262 236 228 221 157 202 190 209 173 237 282 265 349 294 308 296 314 300 276 299 310 299 285 282 268 274 275 276 280 273 293 283 270 268 274 272 277 273 263 278 312 278 262 271 268 267 254 253 219 244 263 233 234 221 261 228 159 227 215 225 246 221 166 224 230 223 228 223 173 219 193 223 216 227 176 233 203 229 234 209 231 227 -107 286 425 278 603 343 341 389 334 373 334 328 331 308 325 302 239 284 251 265 180 247 113 237 259 239 217 262 274 292 350 311 299 318 295 318 225 311 234 300 199 304 243 294 324 306 231 302 207 298 212 311 234 294 200 287 254 289 266 286 216 283 230 278 280 283 287 285 267 283 241 274 216 261 266 258 256 252 256 262 263 256 268 247 257 246 239 234 238 233 219 233 232 229 256 229 257 211 216 239 55 278 79 310 752 348 461 380 382 436 309 445 362 399 375 362 378 344 346 336 326 314 283 298 263 306 279 313 316 329 372 334 380 342 382 355 369 346 339 343 328 341 334 327 337 333 328 323 334 321 334 320 318 331 315 324 331 327 303 318 310 322 310 319 320 319 316 320 307 315 310 319 284 291 282 292 290 284 268 281 279 283 269 265 261 259 236 259 255 274 257 260 290 235 254 229 121 238 114 263 236 284 438 319 445 371 375 375 311 358 307 342 321 307 332 292 309 279 261 271 230 262 220 272 248 288 316 309 363 326 366 336 359 350 344 350 321 327 308 317 311 317 300 302 306 297 293 304 281 301 273 297 275 300 286 294 304 299 305 295 290 294 299 295 281 290 281 281 272 285 265 266 279 259 275 266 285 257 305 231 253 237 158 235 188 44 235 267 328 300 337 271 256 274 247 243 249 219 237 212 216 195 194 167 157 171 150 172 163 207 207 231 256 279 319 284 287 288 273 285 257 281 272 276 222 271 195 276 267 266 264 272 265 261 257 267 267 261 265 268 248 250 273 249 231 243 238 244 230 232 213 241 247 239 156 237 148 229 113 212 171 234 -2 287 670 309 421 359 198 333 236 298 240 282 264 283 262 265 198 240 227 210 117 191 87 218 202 240 214 276 249 298 273 304 396 290 290 293 332 280 281 287 269 283 297 268 244 277 249 274 325 277 220 277 278 283 287 276 260 268 275 278 274 271 349 258 284 246 236 240 222 251 232 249 278 254 246 251 207 267 315 296 -67 -288 129 417 609 431 325 385 249 301 308 274 334 290 308 280 256 260 254 232 262 207 185 226 217 248 218 291 290 313 359 310 317 299 280 307 292 294 317 291 285 284 257 289 318 288 273 286 282 277 280 275 254 279 263 264 264 253 255 248 254 249 258 247 237 251 260 247 232 268 258 270 270 262 220 254 223 264 232 228 221 244 217 241 253 240 214 268 187 282 346 263 -192 -425 251 528 568 477 330 359 294 269 270 266 295 293 295 253 274 299 258 213 189 178 202 127 156 197 233 301 294 301 280 286 286 284 295 294 263 293 264 288 294 283 303 276 290 315 394 295 275 316 299 309 319 299 236 298 260 285 326 231 259 299 317 299 254 229 225 261 236 249 344 238 320 213 228 246 259 238 232 265 303 223 310 231 264 180 327 253 272 228 249 241 270 278 286 325 303 68 -186 -124 469 554 374 394 332 233 218 234 321 238 281 253 299 230 297 223 242 130 253 137 193 120 183 162 272 292 273 296 277 292 275 319 245 268 293 269 279 254 232 276 277 254 273 286 255 251 251 294 276 256 260 275 250 302 255 239 275 267 239 261 257 230 245 292 240 211 250 245 232 198 228 240 229 263 235 222 225 231 193 167 209 199 208 245 215 226 215 274 219 352 211 -64 30 47 288 636 356 348 332 243 286 306 283 291 263 199 249 263 242 224 223 232 213 142 174 134 195 248 219 272 263 315 281 315 294 274 291 305 286 203 259 264 260 226 252 242 264 293 262 257 245 216 250 253 258 250 245 268 256 258 255 260 243 235 248 216 258 248 247 242 233 228 231 222 223 239 234 215 237 220 233 214 224 213 221 197 220 221 208 143 202 176 196 172 189 218 209 202 227 225 200 279 205 128 228 -266 290 947 342 568 395 314 448 354 445 407 395 327 363 392 361 343 342 351 327 308 307 267 301 287 306 358 310 366 341 396 358 358 364 419 362 345 360 388 335 352 330 308 322 295 323 400 321 368 323 295 318 227 309 248 309 237 310 242 315 277 320 259 321 287 315 275 304 277 304 226 301 248 292 323 301 248 282 192 290 264 282 249 277 277 271 255 267 254 270 235 255 197 248 253 256 256 249 276 239 221 211 239 219 88 255 53 242 508 284 301 312 344 351 296 333 294 314 282 293 287 281 270 264 246 242 200 240 197 248 218 253 259 276 307 300 313 313 321 317 311 312 302 306 294 301 292 290 280 292 287 290 285 286 289 293 272 287 294 290 289 284 286 284 288 282 291 275 281 279 278 275 287 275 269 274 272 266 264 258 266 265 266 256 255 250 237 254 230 243 223 254 231 246 263 226 261 211 120 228 68 256 175 274 579 320 413 360 367 379 297 371 308 334 319 301 314 286 302 271 254 258 212 248 205 252 222 266 278 290 324 311 360 322 349 340 338 336 342 329 325 330 310 318 310 311 307 303 308 301 299 308 295 299 306 301 288 296 285 296 284 303 287 291 285 295 283 288 287 292 283 286 283 274 276 270 276 271 254 272 240 269 253 261 282 268 291 255 253 242 126 250 108 86 196 299 471 341 389 373 319 359 297 316 304 300 308 282 293 263 273 235 236 240 200 223 200 236 223 259 269 265 307 283 338 309 335 321 324 313 318 311 307 302 301 295 305 289 291 287 312 296 285 288 287 286 270 272 270 278 270 276 262 277 267 272 266 265 271 272 269 263 272 263 252 251 231 252 253 245 231 231 227 224 220 237 221 239 253 230 242 215 242 224 136 223 110 247 47 313 803 365 511 413 244 385 251 341 264 321 262 307 287 297 294 281 231 252 122 234 79 248 102 267 228 299 317 326 336 321 311 343 329 335 329 321 361 315 360 304 193 295 213 290 329 296 285 286 182 293 330 315 377 298 236 291 321 288 288 280 210 267 223 272 238 276 204 271 232 245 264 246 307 241 150 237 185 248 250 251 205 242 253 252 179 235 306 246 -82 83 385 294 444 360 269 307 184 246 248 225 236 235 284 218 192 206 201 175 123 152 174 174 145 217 249 260 263 284 283 279 268 278 346 285 253 279 268 276 238 260 305 257 243 265 236 262 258 263 273 263 260 259 253 269 274 252 259 248 220 256 241 264 300 249 233 237 201 248 250 249 276 256 212 247 215 274 357 203 -222 -17 473 401 465 381 203 308 268 233 244 228 246 238 295 250 218 247 209 199 167 185 204 212 218 233 206 274 302 291 285 296 316 288 275 297 325 295 304 273 256 292 284 274 279 278 278 251 262 280 268 299 262 263 264 260 206 262 240 255 279 299 252 285 232 269 260 250 213 237 220 236 252 221 144 213 256 284 230 297 391 302 328 422 302 92 -187 16 528 526 426 386 322 320 320 280 259 288 352 320 378 282 316 290 311 203 215 142 176 187 211 223 295 348 327 303 328 303 296 287 374 309 324 297 279 227 348 279 261 321 244 290 285 222 249 229 254 315 319 261 262 236 252 275 279 251 256 346 277 308 249 218 262 264 284 195 229 261 262 232 240 279 228 243 204 150 211 236 243 191 236 300 245 308 238 354 190 -298 231 872 420 714 498 383 452 317 381 423 369 448 367 350 357 346 331 317 318 298 298 272 267 276 296 333 322 354 334 354 344 353 349 394 353 344 339 298 333 346 323 325 326 337 331 327 337 314 322 338 307 308 312 317 310 287 314 323 313 316 324 316 316 270 298 290 300 293 289 305 295 288 291 234 289 246 285 276 289 262 300 288 307 375 238 203 264 -416 300 852 325 436 371 254 375 318 353 304 326 293 324 307 326 248 296 284 260 270 251 180 238 247 252 283 280 322 307 345 321 336 312 317 306 275 305 304 300 267 284 297 288 300 280 261 271 291 283 289 266 298 266 272 256 309 269 118 258 218 252 146 247 144 243 132 247 241 248 241 242 251 243 241 243 105 287 -167 314 882 354 473 365 297 407 376 395 318 360 293 336 282 330 200 327 259 288 251 277 208 280 200 276 206 286 348 321 312 337 248 343 229 345 293 341 241 313 306 308 221 307 246 301 223 307 281 307 289 307 328 308 279 313 219 315 340 294 277 295 300 287 295 293 306 279 268 268 259 270 257 259 292 254 267 241 282 258 233 268 179 307 133 330 676 369 515 379 396 420 362 431 356 400 361 358 353 360 351 347 320 333 303 322 264 321 277 321 322 
#avL[uV]
-67989 -61113 -54318 -46949 -40702 -33753 -27012 -20230 -13335 -6071 295 274 256 280 282 272 305 260 295 267 276 275 233 267 283 245 284 277 263 255 261 258 259 267 296 268 268 267 257 256 271 258 284 247 249 264 271 267 307 265 283 267 230 253 261 256 298 258 303 298 142 259 342 265 290 274 271 263 235 248 263 260 252 246 232 257 275 257 251 252 251 265 284 249 256 245 213 245 237 232 235 241 235 226 234 219 212 223 223 236 250 236 236 245 240 244 246 235 270 246 247 241 231 239 251 239 239 242 243 246 256 242 191 242 259 251 200 254 232 262 268 277 310 267 229 271 196 280 288 273 232 281 253 279 285 295 227 285 217 286 264 288 208 293 191 269 175 276 268 272 147 250 244 249 221 246 135 248 156 257 149 247 176 251 208 252 193 252 228 260 264 261 139 277 259 275 223 262 159 263 194 259 190 267 275 265 256 267 276 267 281 272 171 269 291 266 281 277 297 260 291 265 299 272 263 278 289 278 299 275 296 276 266 273 257 266 281 273 286 283 280 265 244 267 268 269 272 268 288 277 278 285 275 279 280 280 261 277 287 276 279 274 277 276 282 284 276 274 324 272 334 267 95 267 296 262 311 247 317 253 259 248 245 249 246 259 253 251 258 252 265 254 258 245 253 248 235 247 242 243 251 255 247 250 242 253 261 248 256 249 250 256 251 253 252 254 253 256 251 256 240 255 248 261 245 255 274 263 263 261 259 268 260 261 256 268 261 278 253 278 268 274 269 266 247 260 267 258 255 252 261 262 247 262 266 269 261 267 272 271 262 276 285 278 298 287 279 277 313 284 198 274 265 252 297 273 284 280 269 278 264 293 269 287 281 292 289 284 292 290 278 283 275 267 264 271 252 273 250 269 244 260 244 251 260 262 263 261 252 261 257 264 248 262 254 251 246 255 249 269 247 259 238 256 237 248 244 252 265 252 250 254 257 254 244 267 249 266 258 281 285 238 277 251 267 250 257 247 259 241 272 248 262 342 274 229 282 205 282 230 267 259 257 258 240 260 252 258 264 257 267 263 280 266 263 266 265 245 261 245 254 248 233 242 239 249 241 247 254 252 257 246 290 251 280 249 250 254 239 246 235 255 228 238 236 245 213 236 240 251 254 247 258 244 235 225 195 238 232 237 235 241 276 234 297 241 296 246 164 248 241 246 138 220 165 231 260 231 197 222 246 221 139 216 163 227 149 221 199 234 245 239 292 240 171 236 181 225 166 225 181 217 92 225 151 215 79 225 179 213 184 213 238 227 162 227 160 222 108 225 243 234 176 226 216 232 192 234 220 224 158 231 189 230 142 237 226 238 222 235 245 233 241 236 238 235 215 208 196 189 325 424 206 203 288 238 225 236 225 231 197 234 220 222 208 224 241 220 215 227 241 231 201 252 273 246 238 234 219 231 264 244 211 257 254 246 262 246 253 236 212 241 244 250 277 246 228 247 247 242 259 234 238 235 253 240 224 239 240 241 233 236 236 233 238 229 231 232 211 245 243 262 265 250 234 230 233 213 215 243 273 258 239 238 227 239 240 228 269 225 213 245 382 449 221 246 243 219 194 238 294 227 232 237 218 237 267 239 218 198 242 258 274 283 222 292 240 257 216 268 343 271 247 242 247 269 238 238 280 274 229 277 305 242 228 255 238 245 228 286 245 275 379 301 317 275 286 262 251 272 357 301 259 284 291 296 365 273 312 255 280 270 286 265 223 286 284 355 338 259 340 235 273 244 209 257 266 299 204 271 337 292 318 252 329 278 310 239 231 406 363 142 219 366 252 295 260 310 303 274 266 257 267 287 274 265 251 234 246 315 235 291 236 278 289 278 222 254 235 242 240 245 247 307 312 255 228 233 274 305 258 245 234 279 230 217 234 269 249 318 258 245 254 232 252 281 242 254 267 300 253 215 233 321 253 249 258 294 267 258 236 261 239 205 244 297 248 225 239 240 249 255 258 256 251 237 252 303 255 213 249 200 224 395 271 101 252 276 238 226 205 224 213 247 231 202 233 259 229 205 221 238 235 276 249 239 249 289 235 196 227 235 240 262 252 209 241 239 236 209 228 237 239 262 234 227 243 267 248 161 235 232 238 255 230 213 225 236 241 209 249 286 250 228 254 258 261 236 269 279 263 247 261 230 246 245 253 264 249 240 242 230 240 279 256 239 254 241 250 233 252 219 261 218 271 269 267 232 268 261 282 257 280 254 276 218 281 194 284 185 246 249 274 268 243 254 234 246 251 237 254 218 255 228 249 219 248 254 238 179 244 170 243 154 261 247 256 219 248 234 247 126 252 211 235 144 245 184 238 205 238 207 246 98 242 164 247 158 243 218 243 256 249 215 247 274 253 208 254 247 270 184 263 193 269 257 263 242 261 275 275 151 261 301 273 297 268 264 261 273 271 229 272 280 271 281 272 279 280 307 280 249 271 265 276 269 282 295 294 280 283 321 285 318 294 197 287 299 280 242 260 243 269 298 277 305 279 284 292 277 288 291 290 294 273 279 272 275 270 283 266 274 263 271 253 255 254 242 248 228 248 232 238 239 247 247 240 235 242 237 245 237 233 242 236 234 246 224 244 234 242 239 240 246 251 250 245 244 240 234 236 241 231 226 233 228 243 231 242 237 239 240 254 252 242 248 247 257 243 244 234 237 233 235 245 247 259 245 242 298 260 117 253 293 242 293 249 278 254 245 259 251 257 259 259 268 267 281 263 283 263 271 254 269 249 250 242 244 234 235 240 239 227 238 225 230 225 231 238 213 240 222 227 222 236 222 235 231 227 239 235 220 233 221 232 230 237 227 238 224 234 233 229 230 232 232 233 237 231 223 235 228 233 212 234 224 235 235 238 231 246 232 231 233 223 246 226 250 231 255 318 261 221 172 218 233 232 237 226 230 230 215 223 218 224 232 221 225 235 222 225 231 240 237 236 237 239 235 224 248 231 224 232 231 224 242 231 243 226 238 231 228 229 231 232 262 227 241 234 241 235 217 231 230 232 235 225 227 224 237 228 235 228 233 234 225 223 232 237 213 233 229 234 232 230 210 228 235 232 232 236 238 229 235 238 212 232 215 218 239 224 277 234 244 241 262 226 36 201 119 207 227 196 233 203 207 209 213 200 207 193 184 201 196 208 252 210 276 208 278 211 161 210 91 213 160 224 245 240 101 244 120 232 171 230 145 230 199 229 160 237 130 239 149 252 234 254 149 285 121 282 238 267 122 259 147 255 238 265 251 266 240 261 242 256 234 265 231 263 186 269 225 271 281 267 228 271 294 279 255 286 307 281 267 246 315 358 221 248 265 263 302 280 280 277 253 281 260 280 308 283 275 282 260 290 286 297 354 279 238 264 285 248 240 252 250 255 245 258 266 249 261 257 254 253 255 271 303 261 255 247 264 253 266 257 245 265 319 268 261 257 244 271 256 280 307 264 265 257 285 262 251 265 275 265 278 261 263 262 287 270 261 268 307 274 276 269 231 261 259 262 245 272 284 245 235 259 215 267 300 266 257 258 246 266 254 275 309 297 297 268 278 262 247 264 242 265 383 276 313 272 203 273 316 266 304 255 266 264 270 260 279 269 266 279 283 238 276 253 256 258 316 284 279 273 336 239 399 264 216 270 422 273 302 304 305 284 267 302 406 299 336 300 351 284 308 288 436 205 275 371 361 197 306 266 338 253 311 225 287 284 370 300 302 341 273 300 257 308 264 319 314 326 366 323 331 336 285 315 267 337 264 283 247 326 264 280 259 284 248 348 254 331 279 341 325 302 267 372 293 369 293 324 278 319 290 341 284 304 289 329 267 280 307 339 290 349 271 302 254 376 286 335 265 304 277 324 288 291 278 366 295 303 283 362 289 320 306 266 292 232 289 452 253 104 260 193 233 244 236 320 257 236 249 254 265 261 252 272 250 261 252 305 241 264 258 246 282 291 272 260 245 250 249 283 243 224 262 261 247 278 244 239 251 262 253 255 259 257 259 298 267 241 259 262 254 267 267 280 269 246 269 279 267 279 271 283 277 279 276 272 280 254 271 295 265 264 268 312 278 299 294 310 277 283 258 294 282 336 275 228 292 284 286 344 280 280 277 265 274 281 277 309 272 257 272 329 282 264 287 287 293 304 290 265 294 299 288 299 283 256 284 285 283 272 290 311 285 277 287 305 291 245 285 262 290 299 291 270 281 194 287 219 282 226 296 189 289 340 275 294 290 319 281 273 282 308 286 254 284 247 307 304 284 276 277 377 291 281 304 178 280 326 290 275 285 159 283 268 284 223 283 272 282 299 282 200 285 215 289 296 287 304 284 270 294 203 270 251 263 290 264 312 269 252 293 293 277 221 278 303 271 287 272 325 272 303 278 287 282 220 274 285 280 327 284 227 285 296 279 285 283 284 272 269 281 281 285 283 281 297 287 283 292 303 298 281 287 290 279 299 283 346 278 178 277 289 270 295 257 275 248 261 247 262 255 262 254 260 258 271 258 266 262 278 266 279 265 273 
#avF[uV]
107806 96205 86118 74300 64469 52813 42793 31297 21123 9412 -588 -555 -560 -561 -578 -547 -565 -546 -569 -538 -530 -531 -535 -521 -546 -510 -546 -518 -535 -506 -510 -514 -524 -507 -528 -503 -502 -500 -524 -502 -479 -491 -521 -497 -511 -500 -504 -485 -510 -489 -510 -484 -469 -503 -557 -492 -623 -455 -501 -415 294 -527 -1129 -569 -695 -631 -506 -609 -541 -572 -521 -530 -504 -523 -495 -516 -538 -493 -480 -473 -408 -467 -475 -458 -429 -482 -495 -511 -586 -526 -543 -537 -549 -527 -511 -518 -523 -522 -509 -518 -519 -511 -511 -522 -520 -518 -539 -519 -541 -515 -521 -514 -508 -512 -514 -517 -551 -520 -506 -517 -525 -510 -446 -496 -478 -496 -464 -487 -467 -483 -529 -505 -469 -495 -444 -497 -442 -502 -455 -498 -463 -504 -481 -503 -458 -515 -421 -509 -434 -513 -440 -522 -411 -522 -426 -478 -407 -503 -160 -558 -572 -529 -848 -593 -562 -635 -469 -622 -491 -585 -480 -556 -501 -554 -448 -536 -444 -517 -408 -507 -377 -498 -398 -517 -476 -538 -498 -554 -510 -574 -493 -578 -485 -586 -500 -577 -491 -568 -476 -572 -524 -567 -496 -575 -523 -569 -488 -575 -509 -572 -525 -560 -500 -559 -518 -567 -555 -565 -515 -559 -526 -554 -547 -557 -545 -552 -549 -557 -528 -557 -496 -527 -510 -526 -525 -521 -529 -531 -552 -534 -547 -532 -532 -525 -520 -515 -499 -511 -506 -509 -511 -504 -534 -505 -539 -495 -493 -514 -379 -551 -413 -577 -848 -615 -758 -642 -693 -684 -626 -699 -622 -648 -620 -611 -624 -604 -600 -587 -585 -567 -548 -553 -522 -551 -533 -561 -552 -576 -614 -578 -632 -598 -630 -606 -611 -599 -601 -591 -585 -590 -584 -584 -588 -586 -580 -577 -587 -577 -586 -577 -559 -587 -564 -586 -576 -583 -577 -581 -573 -584 -569 -588 -581 -580 -573 -588 -569 -594 -564 -598 -553 -565 -552 -558 -537 -544 -535 -540 -534 -535 -531 -527 -509 -521 -502 -528 -516 -541 -529 -531 -553 -512 -539 -508 -420 -525 -393 -541 -549 -568 -636 -593 -711 -623 -672 -649 -595 -638 -577 -621 -586 -600 -602 -579 -591 -571 -550 -556 -522 -553 -499 -556 -523 -555 -581 -580 -616 -600 -616 -606 -604 -610 -589 -602 -582 -589 -572 -578 -563 -578 -557 -566 -554 -559 -547 -555 -527 -556 -522 -566 -522 -559 -525 -550 -542 -548 -549 -548 -555 -546 -550 -549 -539 -544 -525 -548 -521 -552 -524 -547 -565 -498 -552 -517 -553 -508 -562 -479 -512 -478 -431 -484 -451 -386 -510 -496 -610 -505 -620 -502 -523 -533 -504 -501 -489 -480 -489 -470 -480 -453 -462 -431 -438 -437 -413 -439 -428 -453 -469 -476 -511 -528 -552 -526 -526 -538 -515 -533 -511 -533 -530 -522 -513 -523 -475 -525 -517 -520 -503 -518 -500 -516 -486 -505 -504 -506 -479 -505 -489 -502 -527 -496 -489 -487 -474 -469 -425 -471 -445 -479 -482 -481 -432 -472 -446 -471 -409 -458 -336 -482 -239 -534 -808 -529 -586 -591 -458 -564 -433 -521 -487 -504 -403 -499 -426 -493 -348 -461 -426 -444 -363 -430 -380 -459 -374 -477 -396 -502 -415 -523 -455 -522 -489 -515 -441 -509 -411 -505 -461 -500 -453 -497 -536 -495 -407 -504 -410 -496 -433 -503 -463 -511 -455 -509 -504 -509 -453 -503 -496 -503 -432 -502 -539 -489 -426 -483 -462 -478 -445 -486 -478 -483 -519 -491 -485 -487 -423 -476 -511 -486 -257 -136 -336 -621 -897 -670 -550 -622 -475 -532 -506 -509 -554 -512 -516 -504 -498 -481 -469 -459 -503 -438 -387 -478 -491 -494 -457 -525 -510 -544 -624 -554 -528 -557 -534 -554 -554 -541 -570 -528 -498 -525 -502 -540 -595 -535 -502 -534 -529 -520 -540 -509 -493 -515 -517 -504 -488 -493 -495 -489 -488 -486 -495 -481 -475 -480 -491 -479 -443 -513 -501 -532 -535 -513 -455 -484 -456 -478 -447 -472 -494 -502 -457 -480 -480 -480 -454 -496 -456 -507 -559 -509 -189 -24 -472 -775 -812 -697 -524 -597 -589 -497 -502 -503 -514 -531 -562 -492 -492 -497 -500 -471 -463 -462 -424 -420 -396 -454 -449 -569 -637 -573 -527 -528 -533 -553 -534 -533 -544 -567 -494 -566 -599 -525 -531 -532 -529 -561 -622 -582 -521 -592 -679 -610 -636 -575 -522 -561 -511 -558 -684 -532 -519 -583 -609 -595 -620 -503 -537 -517 -516 -519 -630 -504 -543 -499 -512 -602 -597 -498 -573 -501 -576 -468 -520 -488 -530 -480 -532 -524 -609 -521 -568 -493 -600 -556 -596 -565 -534 -475 -177 -18 -689 -921 -627 -690 -593 -543 -522 -509 -587 -496 -548 -541 -574 -495 -549 -457 -488 -445 -488 -428 -430 -399 -473 -441 -494 -546 -509 -538 -518 -538 -522 -627 -558 -524 -522 -502 -553 -559 -491 -522 -511 -534 -504 -503 -490 -521 -501 -612 -534 -502 -514 -508 -503 -583 -497 -493 -543 -568 -493 -477 -491 -551 -499 -542 -498 -506 -518 -504 -469 -460 -467 -446 -474 -560 -483 -448 -464 -472 -442 -422 -467 -455 -460 -483 -467 -529 -471 -488 -469 -552 -436 -330 -301 -148 -540 -913 -595 -575 -537 -467 -499 -554 -514 -494 -496 -459 -479 -469 -463 -462 -459 -509 -462 -382 -423 -424 -431 -445 -446 -507 -503 -577 -534 -524 -536 -513 -527 -515 -514 -440 -499 -527 -494 -453 -496 -510 -512 -454 -498 -490 -483 -472 -481 -466 -484 -487 -486 -478 -505 -545 -505 -488 -498 -494 -510 -453 -527 -528 -511 -490 -494 -458 -478 -467 -476 -504 -483 -456 -479 -451 -474 -494 -481 -453 -475 -439 -471 -454 -461 -363 -463 -395 -467 -442 -456 -451 -478 -463 -509 -483 -481 -533 -481 -347 -509 71 -574 -1133 -589 -818 -669 -582 -692 -608 -680 -653 -646 -565 -617 -610 -616 -571 -591 -571 -575 -563 -545 -446 -546 -458 -550 -513 -572 -614 -598 -615 -606 -593 -611 -546 -615 -557 -595 -532 -581 -537 -569 -514 -561 -502 -569 -499 -563 -532 -571 -453 -561 -445 -553 -504 -558 -452 -557 -516 -568 -486 -575 -507 -592 -471 -579 -468 -574 -534 -567 -469 -562 -523 -568 -475 -563 -549 -556 -489 -558 -528 -544 -523 -548 -506 -543 -535 -539 -536 -543 -514 -536 -505 -528 -503 -528 -521 -525 -545 -521 -517 -506 -520 -503 -410 -541 -372 -537 -705 -571 -601 -592 -586 -611 -539 -602 -593 -591 -588 -573 -571 -574 -548 -553 -538 -533 -495 -514 -476 -520 -494 -524 -542 -543 -582 -564 -584 -567 -577 -571 -554 -561 -530 -554 -526 -539 -532 -537 -528 -532 -523 -532 -522 -531 -526 -527 -514 -523 -529 -537 -514 -528 -521 -526 -527 -522 -537 -527 -531 -524 -522 -515 -521 -512 -511 -506 -499 -500 -492 -501 -498 -508 -503 -495 -496 -505 -489 -497 -478 -490 -481 -497 -476 -480 -500 -459 -497 -457 -367 -488 -314 -499 -473 -535 -697 -574 -706 -602 -660 -629 -575 -625 -553 -594 -571 -559 -574 -546 -571 -539 -536 -522 -495 -511 -476 -507 -492 -515 -529 -532 -568 -545 -595 -562 -588 -567 -577 -562 -572 -555 -557 -569 -523 -559 -533 -539 -529 -540 -531 -536 -530 -536 -534 -535 -526 -535 -510 -528 -516 -533 -512 -542 -511 -525 -519 -525 -514 -521 -520 -525 -520 -518 -507 -509 -505 -504 -489 -505 -478 -508 -475 -508 -484 -508 -515 -500 -525 -479 -500 -469 -376 -482 -364 -404 -457 -521 -644 -559 -622 -605 -557 -585 -528 -546 -520 -523 -527 -506 -526 -485 -498 -470 -458 -466 -432 -463 -437 -473 -461 -499 -504 -489 -556 -514 -562 -542 -566 -546 -567 -544 -562 -538 -545 -534 -530 -525 -536 -521 -553 -514 -554 -530 -526 -523 -504 -517 -501 -504 -505 -503 -498 -500 -499 -506 -502 -501 -499 -499 -497 -495 -502 -500 -485 -496 -482 -486 -463 -483 -464 -473 -466 -464 -460 -460 -459 -466 -456 -477 -466 -463 -458 -434 -481 -448 -413 -458 -354 -488 -310 -540 -839 -566 -630 -621 -472 -582 -485 -545 -472 -530 -475 -507 -494 -490 -479 -482 -427 -460 -374 -445 -356 -456 -381 -479 -390 -510 -409 -540 -497 -546 -556 -583 -431 -579 -449 -554 -533 -546 -505 -534 -392 -525 -374 -528 -460 -536 -435 -538 -417 -548 -479 -600 -499 -580 -474 -559 -443 -548 -436 -535 -448 -533 -475 -538 -478 -538 -446 -527 -467 -511 -495 -509 -494 -510 -376 -509 -466 -515 -478 -523 -499 -521 -509 -539 -487 -516 -574 -493 -233 -441 -607 -542 -709 -624 -572 -587 -464 -523 -501 -507 -497 -516 -592 -501 -468 -489 -462 -466 -410 -449 -528 -453 -384 -482 -534 -509 -503 -537 -534 -534 -513 -537 -612 -535 -514 -536 -522 -529 -493 -531 -609 -518 -499 -512 -500 -516 -524 -521 -519 -529 -579 -527 -514 -527 -518 -524 -516 -528 -528 -520 -506 -522 -586 -511 -484 -503 -476 -513 -528 -511 -540 -519 -500 -517 -477 -542 -664 -478 -53 -252 -705 -662 -724 -643 -448 -580 -552 -478 -479 -487 -461 -505 -595 -517 -475 -506 -456 -465 -421 -460 -514 -509 -515 -502 -485 -536 -549 -556 -527 -561 -699 -564 -589 -569 -528 -569 -620 -539 -561 -547 -551 -539 -550 -539 -557 -521 -529 -559 -551 -538 -539 -516 -521 -519 -522 -546 -520 -528 -616 -538 -651 -550 -449 -539 -683 -523 -515 -542 -525 -521 -519 -523 -551 -512 -592 -585 -581 -582 -699 -591 -764 -627 -578 -464 -173 -213 -834 -793 -765 -640 -634 -545 -608 -564 -630 -588 -654 -661 -652 -583 -574 -598 -575 -522 -530 -469 -543 -510 -543 -559 -581 -663 -594 -640 -593 -586 -543 -613 -638 -589 -583 -582 -527 -576 -603 -611 -540 -663 -569 -593 -552 -594 -543 -598 -548 -639 -597 -581 -552 -577 -536 -579 -568 -580 -523 -626 -584 -647 -540 -568 -533 -567 -539 -572 -516 -596 -527 -537 -517 -604 -516 -535 -483 -516 -507 -540 -526 -553 -525 -620 -551 -574 -531 -586 -479 -154 -485 -976 -680 -907 -732 -627 -688 -638 -638 -660 -619 -703 -632 -611 -610 -619 -582 -578 -570 -604 -540 -536 -526 -522 -578 -624 -595 -615 -580 -605 -593 -637 -593 -619 -615 -605 -587 -576 -577 -585 -574 -587 -579 -593 -591 -584 -596 -612 -590 -579 -567 -571 -567 -584 -578 -567 -583 -570 -583 -595 -591 -595 -587 -554 -576 -570 -576 -566 -570 -560 -566 -584 -557 -498 -558 -559 -563 -576 -583 -573 -578 -571 -565 -669 -520 -539 -540 188 -593 -1137 -612 -781 -651 -534 -653 -584 -627 -585 -604 -602 -596 -565 -599 -577 -578 -549 -547 -558 -545 -484 -529 -512 -547 -583 -569 -621 -591 -602 -605 -621 -595 -590 -596 -587 -591 -582 -587 -572 -575 -543 -573 -563 -571 -560 -563 -562 -565 -484 -554 -518 -548 -498 -552 -499 -559 -459 -534 -512 -543 -466 -528 -418 -526 -440 -534 -495 -533 -489 -550 -556 -527 -518 -521 -483 -578 -114 -618 -1061 -634 -800 -656 -572 -692 -536 -678 -586 -644 -516 -619 -554 -612 -499 -610 -459 -574 -467 -566 -504 -567 -505 -561 -477 -580 -551 -591 -564 -600 -538 -608 -542 -614 -545 -634 -534 -591 -528 -586 -524 -579 -533 -574 -549 -579 -585 -585 -576 -589 -549 -582 -565 -593 -546 -600 -568 -580 -573 -574 -585 -571 -580 -566 -575 -560 -550 -553 -543 -552 -555 -546 -576 -547 -571 -540 -564 -546 -524 -547 -479 -591 -480 -608 -854 -646 -804 -650 -692 -677 -638 -680 -617 -648 -624 -614 -615 -614 -611 -606 -592 -591 -569 -584 -543 -588 -556 -587 -596 
