ADC Sampling rate (Hz):
100
Fragment duration (sec):
20
Number of samples exported by each lead:
1999

#I[uV]
-677 -619 -562 -491 -433 -361 -304 -232 -169 -101 -45 -25 -26 -29 -32 -22 -26 -25 -33 -33 -39 -30 -30 -44 -26 -46 -41 -45 -43 -48 -46 -56 -42 -49 -51 -45 -44 -43 -39 -27 -45 -28 -12 -34 -7 -10 -19 -24 -41 -41 -51 -40 -30 -33 62 -55 133 150 132 8 -340 -115 -120 -129 -65 -137 -67 -117 -67 -87 -99 -73 -77 -47 -59 -47 -34 -30 -1 -4 10 17 -9 -12 -38 -86 -68 -102 -98 -108 -114 -121 -112 -109 -92 -108 -50 -102 -56 -95 -85 -79 -66 -81 -63 -69 -90 -77 -63 -74 -73 -83 -69 -75 -60 -73 -47 -61 -74 -62 -30 -62 -59 -66 -29 -69 -72 -71 -48 -56 -49 -31 -68 -33 -25 -8 39 -40 -47 -59 -79 -38 -46 -56 24 -50 69 -91 146 608 85 -108 -261 -120 -87 -100 23 -54 -37 -15 -42 -4 -59 0 13 -4 40 6 147 77 65 190 56 102 41 45 22 -71 -41 -55 -123 -54 -76 -82 -72 -83 -38 -46 -106 -39 -24 -81 -25 -17 -104 -51 -51 -28 -112 -64 -151 -38 -94 -47 -48 -44 -33 -29 -140 -43 -148 -58 -87 -2 -23 -54 -53 -59 -137 -6 -21 4 -38 -77 -26 22 -23 72 19 -45 14 -25 -32 -43 -2 -24 -26 -48 -46 -29 293 492 115 -204 -320 -127 -89 -162 13 -15 -85 -27 -65 -41 -6 -57 -22 -2 -5 -9 50 88 60 123 117 140 84 22 3 -53 -22 -44 -80 -94 -93 -78 -46 -51 -55 -55 -63 -8 -86 -87 -39 -45 -78 -68 -54 -53 -6 -39 -61 -57 -56 -54 -72 -36 -25 -54 -56 -32 -29 -48 -23 -70 -63 -21 -50 -44 13 -49 -60 -4 -50 -38 -17 -30 -56 -25 5 19 28 31 -52 -18 -31 -65 26 -39 34 -78 -65 103 467 475 -195 -200 -184 -143 -34 -53 0 -12 15 28 -39 -27 11 -27 22 -5 43 74 69 102 138 132 141 134 124 101 -72 0 -66 -96 -10 -48 -53 -89 -86 -75 -68 -53 -34 -41 -59 -15 -52 -54 -100 -42 -32 -48 -15 -9 -6 -69 -59 -36 -56 -53 -12 -45 -45 -29 -8 -20 -37 -38 -25 -15 -6 6 -38 -19 -9 -16 -15 16 0 -53 9 55 -52 -57 36 30 33 30 -15 -16 18 -41 -63 4 -33 -73 0 -92 227 559 129 -365 -493 -287 -254 -152 -186 -170 -122 -59 -166 -201 -103 -136 -131 -90 -107 -100 -137 -55 -19 -78 -30 2 -72 -106 -80 -145 -142 -147 -156 -102 -170 -126 -177 -178 -144 -134 -182 -119 -113 -109 -127 -116 -117 -112 -104 -134 -124 -83 -139 -127 -97 -98 -129 -95 -140 -102 -75 -117 -141 -133 -169 -64 -95 -111 -115 -112 -118 -106 -121 -111 -95 -72 -144 -139 -76 -49 -112 -119 -119 -119 -108 -64 -67 -25 -112 -101 -96 -83 -74 -136 -110 -89 -98 -169 112 512 34 -578 -245 -299 -233 -119 -203 -124 -153 -148 -162 -142 -154 -118 -126 -164 -154 -125 -118 -52 -62 -44 11 -8 -46 -46 -72 -110 -91 -171 -118 -130 -136 -181 -78 -185 -154 -138 -99 -112 -66 -140 -116 -138 -120 -113 -93 -58 -103 -154 -84 -92 -93 -131 -84 -86 -99 -91 -101 -94 -96 -116 -82 -84 -88 -64 -75 -99 -67 -60 -83 -56 -80 -102 -69 -87 -69 -67 -47 -18 -50 -32 -58 -75 -29 -58 -41 -73 -67 -83 -47 442 96 -454 -97 -274 -173 -71 -176 -104 -129 -84 -92 -87 -71 -84 -64 -78 -55 -40 -34 -70 -2 95 1 29 8 -7 -24 -268 -84 -70 -102 -186 -96 -84 -92 -233 -96 -152 -92 -115 -87 -138 -100 -174 -95 -166 -77 -114 -73 -169 -80 -166 -77 -72 -82 -65 -84 -95 -90 -112 -69 -94 -72 -109 -75 -76 -80 -116 -58 -105 -47 -17 -51 -79 -45 36 -36 17 -43 42 -62 37 -57 -74 -82 153 514 178 -98 -231 -99 36 -84 50 -52 -55 -24 12 1 -46 12 -50 19 -34 38 40 60 84 87 66 72 89 53 71 14 27 -22 -33 -32 -32 -47 -42 -47 -2 -39 -68 -41 -50 -27 -25 -13 -19 -21 -22 -14 -23 -24 -17 -7 -17 -4 -9 -15 -7 -17 3 -2 -16 -10 -5 -9 -13 -7 -16 -4 -25 0 7 12 9 1 5 9 21 18 13 15 1 5 30 13 57 -4 99 -48 162 651 127 -71 30 -66 -25 -60 10 -22 35 14 36 26 37 38 50 55 70 52 101 116 120 178 129 185 89 28 66 6 22 -8 -21 -42 -41 -41 -47 -19 -27 -22 -2 -7 -12 -4 -3 -4 -3 -4 -9 -8 4 -16 4 -5 -3 -3 -20 5 -20 -4 -5 -14 -8 -7 -21 -23 -15 -25 -4 -33 -16 -8 -12 -35 -12 -13 1 -6 9 57 13 -2 -1 -2 -6 -24 4 -26 59 -34 127 93 43 491 27 -107 -25 -77 -31 -79 14 -39 21 -8 16 17 32 25 47 21 82 91 100 133 119 193 111 186 88 105 54 -67 -17 -40 -41 -41 -57 -41 -53 -35 -19 -26 -25 -4 0 5 9 22 0 5 6 -11 6 27 13 -26 18 43 2 -6 18 5 19 53 2 26 34 16 30 82 34 -7 41 31 57 49 55 61 59 82 66 72 55 40 42 47 58 1 113 -1 156 266 72 202 -219 -151 -74 -167 -52 -73 -49 -72 -65 -48 -62 -34 -25 -42 -1 -25 48 8 63 103 90 168 73 115 35 -19 -10 -112 -56 -99 -5 -33 -34 -70 -58 -98 -66 -22 -61 -34 -17 -82 -32 20 -50 -54 -60 -60 -33 -55 -75 -61 -31 -43 -75 -91 -28 -34 27 -53 -79 -115 -39 -32 0 -39 75 7 46 -112 -69 -21 -88 -58 -1 -62 -73 -60 52 131 150 228 -327 -143 -176 -176 -61 -87 -86 -39 -52 -89 -19 -34 -51 19 -44 6 48 30 103 200 196 156 95 174 120 63 6 -67 -43 -55 -79 -67 -41 8 -80 -58 -31 -92 -26 -54 -64 34 -29 -30 -27 -34 -4 -16 -45 -13 -33 -19 8 5 -17 -18 -6 -17 -37 -28 -6 -73 -29 39 27 17 -37 -42 41 34 -13 27 -29 -28 -17 -9 -13 -53 3 -63 -12 103 500 402 -238 -111 -110 -148 42 -5 2 31 50 64 0 -25 13 22 13 59 84 23 114 173 144 131 116 141 89 94 7 -39 -34 -34 -25 -22 -44 -54 -28 -7 8 -42 -48 15 -6 -38 -8 24 11 -6 -52 -28 19 11 -24 -48 19 61 0 -17 -55 -14 7 8 -41 -31 4 -55 20 13 -3 -19 -10 35 -31 17 -2 11 52 47 0 -32 1 11 -1 -25 -32 -61 -54 52 502 630 60 -259 -267 -168 -78 -35 -31 -11 -2 -27 -72 -58 -42 -10 -22 -32 13 -17 -8 50 47 82 94 51 20 75 -47 -65 -49 -141 -93 -64 -82 -82 -61 -58 -87 -101 -107 -71 -75 -104 -75 -43 -82 -88 -56 -86 -73 -69 -89 -51 -34 -104 -68 -29 -56 -61 -50 -85 -98 -20 -54 -70 -32 -50 -27 7 -83 -38 -15 -89 -61 1 -54 -72 7 36 -10 2 -26 -33 -15 -50 -27 -67 -6 -61 -75 83 550 579 -61 -339 -83 -135 -145 0 -78 -6 -9 -38 -51 -33 17 -17 -62 -58 -14 -69 -51 18 11 18 -8 50 58 -58 -119 -28 -116 -172 -120 -129 -114 -105 -148 -136 -136 -61 -57 -107 -124 -119 -101 -100 -76 -64 -85 -85 -84 -3 -102 -72 -97 -112 -93 -44 -71 -64 -65 -91 -45 -29 -116 -100 -47 -105 -85 -84 -61 -37 -67 -62 -77 -46 -60 -87 -67 -64 -10 8 -24 -87 -64 0 -8 -50 -58 -106 -76 -113 -55 259 502 224 -169 -261 -143 -50 -69 -14 -24 20 -21 -34 -4 45 21 61 42 11 108 83 108 85 162 126 178 165 21 75 -26 -19 -17 -69 -50 -71 -55 -1 -38 -34 -7 -38 -27 -45 -27 12 -32 -4 -3 -63 -30 -24 -16 -39 0 -14 0 18 3 32 0 -39 20 13 19 26 9 -9 0 20 15 -8 16 -26 15 -36 34 -11 40 64 31 -18 23 -74 18 -4 21 88 18 41 57 307 61 -530 -109 -273 -174 -80 -191 -133 -145 -161 -98 -127 -93 -173 -84 -120 -66 -109 -45 -33 -4 39 -4 77 -14 3 -33 -94 -74 -145 -98 -99 -111 -88 -104 -118 -101 -91 -98 -30 -86 -70 -77 -25 -85 -49 -94 -89 -75 -61 -81 -21 -69 -25 -76 -59 -76 -91 -74 -29 -70 6 -71 3 -52 -47 -59 -71 -48 6 -49 17 -57 -38 -37 -40 -42 -51 -27 -37 -24 -21 -37 -61 -46 -48 -56 -31 -61 1 -24 112 352 142 -66 -315 -108 2 -105 -83 -107 -60 -96 -54 -62 -65 -49 -62 -44 -64 -29 -13 5 17 26 23 20 14 12 -10 -23 -38 -41 -75 -50 -98 -79 -83 -80 -79 -70 -70 -68 -74 -68 -59 -70 -53 -65 -82 -58 -81 -55 -72 -55 -63 -59 -67 -54 -61 -52 -62 -57 -73 -64 -58 -39 -67 -57 -47 -43 -41 -46 -51 -55 -54 -36 -53 -39 -27 -38 -10 -32 -8 -41 -8 -34 -48 -55 -70 -39 -39 -39 71 -44 128 194 21 -67 -324 -127 -116 -131 -109 -151 -80 -134 -94 -112 -97 -94 -90 -76 -72 -51 -57 -36 -28 -17 9 -12 5 -36 -18 -45 -58 -75 -104 -96 -93 -98 -105 -91 -84 -82 -70 -81 -62 -85 -58 -71 -75 -65 -62 -76 -55 -74 -58 -64 -72 -57 -68 -63 -62 -52 -56 -51 -35 -45 -41 -50 -42 -56 -46 -43 -40 -37 -45 -27 -49 -20 -27 -19 -22 -22 -28 -13 -16 -29 -31 -21 -43 -17 -27 -16 60 -7 119 11 35 -55 -427 -118 -116 -137 -91 -124 -60 -97 -96 -95 -86 -78 -83 -54 -83 -42 -43 -16 -15 0 11 -1 3 -33 -28 -59 -68 -85 -104 -100 -125 -109 -45 -100 -91 -83 -113 -93 -70 -74 0 -79 -63 -74 -22 -65 -69 -61 -42 -59 -46 -58 -34 -54 -30 -72 -52 -65 -48 -48 39 -53 -23 -58 18 -56 79 -38 -31 -33 -26 -25 80 -7 -18 -25 -30 -36 -42 -42 -1 -23 71 -23 -23 77 182 -19 -578 -158 -219 -146 -106 -110 -144 -72 -95 -65 -106 -66 -6 -40 -89 -19 -65 -5 28 -5 95 41 54 7 -61 -36 -156 -62 -149 -71 -55 -84 -97 -69 -85 -71 -60 -67 -67 -56 -43 -40 -19 -24 -114 -40 -41 -42 -49 -55 -76 -48 15 -52 -60 -45 -77 -45 -17 -50 -50 -49 -38 -31 -93 -36 -37 -35 -78 -11 -11 -22 4 -24 12 10 -50 -30 -20 -46 -15 -5 31 -57 -13 -88 43 310 231 -253 -580 -226 -210 -186 -116 -129 -96 -95 -143 -105 -94 -101 -123 -91 -143 -57 -28 -74 -34 -10 29 24 -42 -57 -43 -131 -86 -76 -97 -94 -155 
#II[uV]
-785 -4280 -716 -4203 -639 -4126 -562 -4049 -479 -3970 -408 -399 -411 -400 -407 -398 -394 -400 -391 -400 -397 -400 -395 -402 -392 -402 -396 -408 -404 -416 -412 -419 -417 -420 -429 -419 -429 -412 -430 -405 -414 -396 -384 -397 -381 -378 -388 -399 -428 -416 -453 -432 -420 -425 -285 -448 -170 -257 -231 -259 -751 -525 -542 -522 -451 -492 -396 -450 -384 -420 -422 -391 -406 -365 -371 -334 -323 -290 -265 -246 -248 -241 -274 -318 -336 -397 -401 -439 -458 -459 -471 -493 -467 -477 -459 -480 -411 -461 -409 -452 -452 -449 -444 -452 -432 -443 -446 -440 -425 -434 -428 -430 -418 -415 -413 -416 -383 -409 -416 -409 -363 -417 -387 -419 -354 -418 -373 -406 -391 -386 -300 -421 -361 -389 -321 -341 -281 -388 -331 -433 -385 -441 -315 -424 -231 -438 -207 -428 -146 457 -121 -622 -706 -585 -398 -509 -295 -419 -318 -387 -295 -357 -250 -327 -261 -303 -191 -276 -77 -168 -135 -112 -150 -91 -140 -215 -205 -360 -237 -375 -326 -406 -283 -360 -346 -377 -270 -388 -315 -367 -290 -372 -284 -368 -381 -358 -324 -354 -318 -365 -340 -405 -345 -351 -333 -360 -333 -376 -344 -379 -366 -351 -327 -319 -272 -323 -275 -310 -308 -300 -266 -287 -267 -317 -252 -246 -253 -172 -190 -284 -244 -316 -282 -321 -215 -319 -251 -364 -255 -323 -15 595 118 -711 -861 -642 -443 -505 -301 -354 -460 -381 -390 -365 -329 -357 -329 -335 -369 -322 -248 -214 -208 -156 -141 -154 -203 -196 -284 -350 -352 -387 -373 -393 -347 -340 -356 -339 -347 -363 -344 -367 -356 -320 -330 -311 -316 -376 -400 -333 -284 -369 -343 -378 -330 -364 -368 -320 -330 -370 -344 -386 -370 -371 -351 -372 -368 -363 -319 -333 -359 -366 -383 -329 -407 -389 -330 -310 -326 -316 -240 -233 -289 -285 -326 -287 -379 -363 -260 -419 -308 -384 -241 -120 322 720 -478 -829 -622 -525 -271 -264 -179 -232 -289 -250 -255 -271 -276 -277 -243 -229 -182 -169 -193 -182 -157 -35 -51 -120 -121 -173 -305 -308 -407 -424 -302 -333 -332 -346 -333 -316 -359 -382 -293 -288 -300 -251 -282 -351 -283 -384 -344 -308 -322 -280 -330 -288 -280 -298 -315 -359 -261 -266 -287 -290 -308 -286 -299 -397 -368 -340 -291 -321 -384 -321 -302 -321 -288 -376 -407 -354 -328 -309 -284 -313 -263 -212 -230 -287 -266 -347 -415 -358 -309 -312 -310 -344 -328 -331 5 576 168 -1014 -1184 -838 -642 -392 -440 -410 -396 -396 -416 -443 -412 -414 -357 -374 -346 -364 -352 -314 -318 -287 -228 -214 -266 -363 -437 -463 -447 -550 -485 -490 -493 -494 -504 -492 -535 -487 -515 -486 -473 -451 -460 -456 -464 -437 -416 -458 -415 -439 -553 -419 -378 -408 -422 -446 -407 -476 -493 -431 -435 -433 -505 -340 -372 -487 -437 -417 -425 -422 -412 -394 -495 -419 -457 -483 -412 -439 -429 -429 -475 -421 -375 -312 -451 -357 -426 -479 -524 -464 -500 -459 -464 -504 -512 -406 -287 516 18 -1130 -766 -814 -655 -376 -549 -398 -471 -436 -453 -434 -461 -386 -404 -390 -461 -409 -406 -255 -315 -269 -243 -209 -369 -356 -373 -438 -452 -483 -462 -470 -517 -509 -515 -520 -489 -448 -484 -476 -448 -485 -428 -448 -438 -413 -457 -409 -424 -453 -404 -404 -378 -415 -406 -394 -399 -476 -373 -400 -387 -429 -372 -386 -417 -396 -387 -399 -366 -396 -370 -361 -406 -455 -353 -365 -333 -335 -340 -352 -354 -359 -352 -401 -370 -365 -401 -415 -396 -397 -368 242 -125 -885 -508 -750 -597 -446 -551 -436 -483 -380 -449 -394 -390 -371 -375 -356 -365 -361 -349 -295 -309 -158 -284 -146 -286 -214 -356 66 -356 -354 -414 -419 -445 -405 -448 -423 -430 -424 -406 -383 -419 -423 -418 -380 -422 -358 -427 -390 -390 -370 -398 -410 -403 -361 -389 -388 -392 -403 -395 -304 -390 -359 -378 -353 -360 -361 -342 -310 -338 -274 -316 -175 -318 -225 -295 -208 -299 -272 -330 -257 -351 -228 -326 -269 -305 -35 325 52 -394 -573 -469 -330 -483 -297 -439 -335 -380 -311 -325 -325 -308 -295 -301 -314 -271 -266 -243 -213 -239 -218 -267 -242 -312 -287 -345 -349 -379 -394 -402 -382 -406 -390 -410 -365 -398 -406 -405 -408 -384 -368 -375 -373 -371 -367 -374 -378 -366 -375 -362 -374 -377 -364 -387 -385 -395 -383 -380 -411 -370 -375 -381 -385 -385 -407 -386 -407 -390 -390 -365 -380 -362 -358 -348 -350 -337 -370 -354 -376 -379 -346 -361 -296 -358 -216 -373 -159 533 -187 -433 -331 -451 -373 -449 -342 -376 -291 -309 -278 -287 -292 -272 -259 -260 -230 -248 -186 -164 -155 -94 -156 -113 -191 -290 -260 -333 -337 -381 -349 -425 -388 -412 -383 -396 -369 -381 -347 -361 -360 -356 -348 -356 -334 -359 -337 -362 -303 -359 -304 -319 -309 -313 -319 -306 -326 -311 -314 -321 -318 -311 -309 -311 -281 -286 -266 -285 -274 -268 -278 -281 -265 -262 -242 -243 -233 -190 -247 -251 -266 -275 -285 -304 -267 -300 -196 -330 -110 -217 -193 487 -257 -456 -316 -414 -332 -380 -268 -326 -242 -265 -245 -254 -219 -237 -189 -219 -120 -147 -70 -40 -44 36 -50 1 -94 -106 -153 -305 -233 -295 -267 -282 -286 -302 -286 -294 -270 -308 -282 -275 -269 -259 -253 -236 -244 -254 -238 -274 -245 -242 -240 -258 -239 -201 -236 -271 -218 -235 -210 -167 -194 -146 -161 -152 -155 -108 -156 -136 -162 -205 -148 -144 -141 -114 -127 -20 -119 -97 -145 -163 -163 -162 -131 -203 -70 -225 -19 17 -113 382 -445 -514 -346 -481 -321 -357 -309 -308 -282 -281 -268 -261 -236 -261 -209 -231 -148 -192 -113 -76 -74 -16 -73 -38 -142 -198 -223 -347 -276 -384 -230 -306 -269 -324 -272 -285 -298 -295 -285 -282 -254 -334 -287 -306 -261 -298 -228 -316 -205 -325 -253 -310 -259 -307 -217 -336 -218 -295 -216 -358 -270 -336 -238 -294 -185 -266 -110 -221 -175 -300 -202 -303 -223 -306 -169 -296 -176 -355 -61 -67 86 510 -475 -599 -355 -474 -208 -178 -173 -196 -146 -181 -169 -171 -83 -126 -134 -134 -41 -116 -52 -42 45 34 -52 24 -43 -146 -238 -288 -298 -347 -305 -327 -304 -323 -342 -319 -318 -351 -286 -296 -273 -264 -337 -302 -278 -286 -221 -302 -234 -290 -326 -318 -286 -263 -238 -293 -229 -290 -254 -278 -243 -288 -294 -254 -228 -248 -234 -223 -157 -190 -242 -257 -361 -331 -270 -366 -279 -376 -320 -443 -255 -164 412 581 -638 -690 -605 -545 -236 -305 -301 -282 -297 -334 -361 -337 -308 -272 -252 -250 -272 -214 -173 -103 -85 -134 -97 -111 -263 -202 -266 -359 -336 -366 -343 -321 -363 -467 -388 -336 -316 -364 -384 -353 -327 -366 -364 -357 -323 -376 -498 -395 -337 -372 -351 -404 -376 -403 -408 -392 -422 -383 -385 -386 -354 -415 -374 -416 -439 -379 -323 -344 -357 -371 -338 -276 -312 -336 -289 -320 -350 -329 -325 -407 -395 -457 -326 -456 -359 -240 219 809 -206 -959 -790 -683 -412 -353 -354 -350 -349 -367 -489 -470 -370 -333 -336 -409 -308 -273 -276 -182 -198 -267 -170 -154 -215 -268 -470 -476 -357 -443 -408 -423 -380 -375 -376 -501 -525 -377 -378 -345 -352 -502 -423 -366 -386 -391 -328 -346 -479 -487 -393 -408 -355 -382 -378 -418 -396 -392 -356 -403 -518 -431 -390 -416 -358 -422 -486 -424 -397 -410 -412 -448 -411 -379 -401 -421 -301 -312 -471 -402 -424 -418 -389 -513 -358 -459 -396 -454 -400 -263 279 736 -406 -1121 -595 -542 -475 -288 -355 -314 -341 -433 -468 -366 -298 -394 -302 -319 -387 -304 -254 -239 -231 -246 -192 -188 -236 -318 -378 -360 -436 -408 -405 -520 -557 -473 -462 -411 -442 -374 -380 -341 -410 -455 -458 -368 -363 -342 -371 -327 -351 -342 -380 -327 -363 -386 -421 -345 -364 -333 -350 -325 -338 -384 -376 -371 -419 -383 -423 -340 -357 -330 -378 -354 -369 -355 -371 -340 -376 -296 -288 -289 -320 -399 -461 -347 -359 -391 -374 -384 -429 -413 -368 -67 467 192 -535 -774 -548 -379 -401 -226 -320 -258 -305 -280 -263 -227 -254 -220 -256 -221 -167 -167 -113 -95 -122 -93 -68 -69 -233 -194 -310 -303 -332 -361 -396 -402 -375 -348 -347 -336 -323 -332 -342 -368 -349 -329 -354 -315 -331 -326 -334 -332 -326 -299 -361 -383 -332 -314 -322 -282 -298 -312 -290 -275 -332 -260 -336 -335 -302 -283 -296 -277 -279 -269 -295 -224 -263 -197 -223 -204 -258 -240 -271 -306 -311 -244 -327 -265 -306 -252 -270 205 -228 -972 -479 -693 -594 -424 -599 -412 -532 -457 -461 -377 -432 -394 -424 -369 -417 -340 -394 -262 -301 -199 -303 -138 -312 -203 -343 -313 -392 -393 -451 -389 -457 -434 -475 -421 -458 -366 -423 -340 -425 -357 -436 -349 -432 -367 -444 -368 -429 -402 -440 -364 -435 -366 -458 -402 -468 -410 -433 -402 -435 -382 -447 -397 -441 -404 -443 -448 -421 -369 -405 -350 -400 -373 -368 -376 -349 -366 -340 -349 -347 -355 -349 -393 -384 -400 -377 -386 -354 -296 -309 -136 37 -94 -393 -732 -465 -435 -510 -474 -511 -432 -475 -420 -429 -430 -421 -440 -404 -429 -388 -377 -345 -317 -313 -288 -302 -312 -343 -353 -386 -416 -422 -465 -446 -469 -453 -461 -443 -439 -430 -415 -424 -422 -419 -426 -416 -411 -420 -395 -408 -392 -405 -420 -405 -408 -407 -406 -399 -401 -399 -401 -412 -411 -418 -406 -407 -420 -419 -414 -414 -404 -408 -403 -406 -401 -382 -395 -373 -366 -359 -336 -359 -330 -357 -336 -359 -372 -404 -366 -380 -329 -360 -201 -379 -144 -158 -352 -447 -687 -535 -553 -554 -526 -587 -461 -550 -436 -482 -475 -458 -473 -438 -431 -400 -395 -373 -364 -367 -327 -374 -357 -407 -392 -431 -454 -462 -510 -479 -523 -496 -535 -492 -508 -487 -484 -477 -464 -468 -451 -449 -454 -441 -437 -433 -443 -429 -445 -460 -432 -448 -436 -455 -449 -435 -443 -446 -419 -426 -426 -435 -420 -437 -419 -434 -414 -437 -423 -402 -449 -391 -418 -398 -404 -390 -400 -388 -391 -412 -424 -413 -467 -398 -434 -393 -320 -398 -221 -397 -353 -462 -889 -542 -612 -577 -560 -566 -498 -519 -499 -501 -484 -469 -477 -431 -462 -407 -429 -364 -401 -344 -338 -353 -358 -394 -393 -436 -443 -479 -499 -491 -529 -504 -465 -495 -495 -477 -511 -511 -451 -492 -386 -487 -463 -486 -403 -481 -488 -480 -460 -480 -428 -481 -440 -468 -397 -465 -418 -447 -398 -432 -317 -432 -338 -439 -351 -424 -308 -419 -345 -404 -387 -376 -286 -377 -310 -397 -365 -384 -327 -378 -282 -366 -281 -381 -293 -303 3 -393 -997 -543 -608 -560 -369 -507 -502 -440 -477 -494 -407 -481 -350 -439 -338 -402 -282 -364 -278 -344 -172 -324 -228 -362 -346 -429 -415 -461 -450 -518 -416 -505 -396 -472 -459 -466 -475 -479 -411 -464 -362 -445 -428 -443 -412 -456 -424 -436 -423 -453 -483 -462 -420 -446 -451 -444 -445 -449 -447 -448 -464 -449 -435 -429 -450 -438 -442 -430 -442 -458 -368 -417 -427 -412 -321 -383 -417 -412 -406 -435 -396 -406 -339 -424 -514 -453 -248 -124 165 -737 -1257 -707 -655 -607 -420 -506 -476 -496 -570 -508 -510 -513 -455 -496 -478 -480 -511 -447 -417 -379 -330 -351 -348 -432 -508 -506 -435 -551 -576 -512 -536 
#III[uV]
-108 -3661 -154 -3711 -206 -3765 -258 -3816 -309 -3868 -362 -373 -385 -370 -375 -375 -368 -374 -358 -367 -358 -370 -365 -358 -365 -356 -354 -363 -361 -367 -365 -362 -374 -370 -377 -373 -385 -369 -391 -378 -368 -368 -371 -362 -373 -367 -369 -374 -387 -374 -402 -392 -390 -392 -348 -392 -303 -408 -363 -267 -411 -410 -422 -393 -386 -354 -329 -333 -316 -332 -323 -318 -329 -317 -312 -286 -288 -259 -264 -242 -259 -258 -265 -305 -298 -311 -332 -337 -359 -350 -356 -372 -355 -368 -367 -371 -360 -359 -353 -357 -366 -369 -377 -370 -368 -374 -356 -363 -362 -360 -354 -347 -349 -340 -352 -343 -336 -348 -341 -346 -333 -355 -328 -352 -325 -349 -300 -334 -343 -330 -251 -390 -292 -355 -295 -332 -321 -347 -283 -373 -306 -402 -269 -367 -255 -387 -277 -336 -293 -150 -206 -514 -445 -464 -311 -409 -318 -365 -280 -371 -252 -353 -191 -326 -274 -298 -231 -282 -225 -246 -201 -302 -207 -193 -181 -261 -227 -288 -196 -320 -202 -352 -207 -278 -274 -293 -231 -342 -209 -327 -266 -290 -259 -350 -276 -307 -272 -325 -206 -300 -188 -367 -250 -303 -285 -315 -299 -347 -204 -336 -218 -292 -240 -317 -248 -269 -221 -251 -170 -294 -245 -292 -229 -240 -226 -268 -229 -245 -210 -238 -259 -290 -250 -277 -213 -294 -225 -316 -209 -294 -308 102 2 -506 -541 -515 -353 -343 -315 -339 -375 -354 -325 -324 -323 -300 -306 -333 -364 -312 -299 -303 -268 -280 -258 -295 -288 -219 -288 -296 -330 -343 -293 -298 -254 -261 -309 -287 -292 -308 -280 -358 -269 -233 -291 -266 -238 -307 -346 -280 -277 -329 -282 -321 -274 -309 -296 -283 -305 -316 -288 -353 -341 -322 -327 -302 -305 -342 -268 -288 -372 -317 -323 -324 -356 -351 -313 -280 -269 -291 -246 -252 -317 -316 -274 -269 -348 -297 -286 -380 -343 -305 -175 -224 -144 244 -283 -629 -437 -381 -236 -210 -180 -219 -304 -278 -216 -244 -287 -250 -265 -223 -225 -244 -262 -284 -296 -168 -193 -255 -246 -275 -232 -309 -340 -327 -291 -285 -279 -256 -246 -241 -291 -328 -258 -247 -240 -236 -230 -296 -183 -341 -312 -259 -307 -271 -323 -219 -220 -261 -259 -306 -249 -221 -241 -260 -299 -265 -262 -359 -342 -325 -284 -328 -345 -302 -292 -305 -272 -392 -406 -301 -338 -364 -231 -256 -299 -243 -263 -318 -250 -331 -433 -316 -245 -316 -276 -271 -328 -239 -222 17 38 -649 -690 -551 -388 -239 -253 -240 -273 -336 -250 -241 -308 -278 -226 -284 -238 -263 -215 -258 -298 -209 -198 -216 -194 -256 -356 -318 -305 -403 -328 -388 -322 -367 -326 -313 -391 -352 -332 -366 -359 -341 -333 -339 -346 -325 -312 -323 -291 -355 -413 -291 -281 -310 -293 -350 -267 -374 -417 -314 -293 -299 -335 -276 -277 -375 -322 -305 -307 -315 -290 -283 -400 -347 -312 -343 -336 -389 -316 -309 -355 -301 -266 -248 -384 -331 -313 -377 -427 -381 -426 -323 -354 -415 -413 -236 -400 4 -16 -551 -520 -514 -422 -256 -345 -274 -317 -287 -290 -292 -306 -267 -277 -226 -307 -283 -288 -202 -253 -224 -255 -200 -323 -309 -301 -327 -361 -311 -344 -339 -381 -328 -437 -334 -334 -310 -384 -364 -382 -345 -312 -309 -317 -299 -364 -350 -320 -299 -320 -311 -284 -284 -322 -308 -299 -385 -272 -306 -291 -312 -290 -302 -328 -331 -312 -300 -299 -335 -287 -304 -326 -352 -284 -278 -263 -267 -292 -334 -303 -327 -294 -325 -340 -307 -360 -341 -329 -314 -320 -200 -221 -431 -411 -475 -423 -374 -375 -331 -354 -295 -356 -306 -318 -287 -311 -277 -310 -321 -315 -225 -306 -253 -286 -175 -295 -206 -331 334 -272 -284 -312 -233 -348 -321 -355 -189 -333 -272 -313 -267 -332 -285 -317 -206 -327 -192 -349 -276 -317 -200 -317 -244 -326 -289 -306 -322 -307 -308 -304 -191 -320 -264 -306 -244 -285 -285 -262 -193 -280 -169 -269 -158 -267 -146 -249 -245 -263 -289 -287 -299 -288 -266 -268 -195 -223 -188 -188 -125 -295 -341 -369 -367 -399 -348 -387 -279 -355 -324 -326 -278 -320 -244 -321 -279 -309 -307 -304 -297 -326 -284 -340 -331 -365 -359 -360 -377 -356 -360 -370 -350 -358 -348 -362 -363 -358 -338 -363 -358 -356 -342 -362 -354 -350 -344 -360 -354 -342 -357 -355 -357 -373 -355 -371 -377 -378 -386 -377 -394 -360 -370 -371 -372 -377 -391 -382 -382 -389 -398 -377 -390 -363 -363 -357 -371 -356 -384 -370 -377 -384 -377 -374 -354 -353 -315 -325 -321 -118 -314 -361 -362 -385 -348 -389 -353 -354 -327 -323 -314 -313 -329 -311 -310 -316 -300 -300 -288 -281 -276 -273 -285 -299 -280 -319 -326 -340 -359 -372 -327 -382 -347 -370 -335 -376 -342 -358 -344 -354 -347 -352 -345 -351 -330 -355 -327 -353 -307 -342 -309 -314 -305 -310 -298 -311 -306 -306 -309 -306 -309 -304 -288 -287 -266 -260 -262 -251 -257 -259 -266 -246 -252 -248 -244 -237 -242 -248 -261 -249 -265 -273 -279 -279 -272 -274 -256 -296 -237 -311 -237 -3 -284 -348 -290 -336 -300 -301 -282 -287 -264 -256 -261 -271 -252 -263 -237 -241 -202 -238 -170 -174 -163 -156 -161 -185 -183 -211 -208 -237 -215 -255 -225 -241 -229 -260 -233 -258 -251 -282 -256 -270 -269 -264 -263 -258 -244 -260 -244 -263 -252 -270 -254 -231 -258 -244 -238 -265 -237 -240 -230 -221 -196 -172 -196 -169 -186 -190 -191 -128 -203 -237 -206 -193 -196 -175 -186 -103 -185 -170 -201 -204 -205 -210 -190 -204 -183 -223 -176 -249 -185 180 -225 -363 -272 -314 -268 -284 -259 -235 -217 -232 -206 -226 -211 -218 -208 -206 -196 -201 -177 -180 -165 -184 -147 -153 -177 -179 -212 -234 -219 -284 -225 -273 -234 -254 -214 -187 -232 -272 -223 -247 -236 -251 -254 -326 -210 -243 -167 -256 -172 -269 -177 -248 -228 -264 -142 -245 -189 -260 -243 -304 -191 -221 -198 -262 -186 -226 -185 -229 -222 -188 -132 -282 -135 -247 -168 -233 -103 -295 -113 -199 -64 282 -147 -455 -178 -298 -146 -90 -86 -156 -93 -92 -149 -137 -32 -145 -89 -140 -89 -147 -155 -243 -151 -122 -147 -149 -163 -210 -244 -221 -255 -291 -226 -260 -262 -331 -262 -261 -287 -258 -260 -242 -208 -298 -307 -272 -250 -251 -216 -285 -188 -276 -293 -298 -295 -268 -220 -274 -223 -273 -217 -250 -237 -214 -264 -293 -256 -265 -196 -180 -199 -224 -229 -285 -332 -303 -253 -357 -266 -323 -324 -379 -242 -268 -88 179 -399 -579 -494 -397 -278 -299 -303 -313 -348 -398 -361 -311 -321 -295 -266 -310 -356 -238 -288 -277 -229 -266 -213 -253 -353 -296 -274 -320 -301 -331 -318 -298 -319 -413 -360 -329 -325 -321 -336 -369 -320 -327 -355 -382 -334 -370 -445 -366 -357 -384 -327 -355 -396 -464 -408 -374 -366 -369 -393 -394 -313 -384 -379 -361 -460 -392 -320 -325 -347 -407 -306 -293 -310 -348 -342 -368 -350 -297 -327 -418 -393 -432 -293 -395 -305 -292 -282 179 -267 -700 -523 -514 -334 -318 -322 -338 -346 -339 -417 -412 -328 -323 -314 -376 -321 -255 -267 -232 -245 -349 -264 -205 -236 -343 -423 -410 -307 -302 -315 -359 -298 -292 -315 -443 -438 -276 -270 -274 -277 -398 -347 -322 -304 -302 -272 -259 -406 -418 -304 -357 -320 -277 -309 -388 -340 -331 -306 -318 -420 -411 -336 -346 -325 -371 -459 -431 -314 -371 -397 -358 -349 -381 -346 -348 -308 -348 -461 -405 -397 -385 -373 -463 -330 -391 -390 -393 -325 -346 -270 157 -344 -782 -512 -406 -329 -289 -276 -308 -331 -395 -416 -333 -316 -377 -240 -260 -372 -235 -203 -257 -242 -264 -184 -239 -294 -260 -259 -331 -319 -236 -284 -390 -442 -367 -313 -275 -306 -312 -322 -233 -285 -335 -356 -267 -286 -277 -285 -242 -267 -339 -277 -254 -265 -273 -327 -301 -293 -268 -284 -233 -292 -355 -259 -271 -371 -278 -337 -255 -296 -292 -311 -292 -292 -309 -311 -252 -308 -231 -277 -298 -296 -312 -396 -347 -350 -341 -315 -278 -353 -300 -313 -327 -34 -32 -366 -512 -405 -329 -332 -211 -295 -278 -283 -245 -259 -272 -276 -282 -299 -232 -276 -251 -221 -181 -284 -219 -247 -234 -254 -270 -283 -284 -315 -292 -345 -331 -319 -346 -309 -301 -315 -294 -314 -322 -322 -341 -322 -310 -327 -263 -303 -308 -310 -259 -361 -369 -333 -332 -326 -315 -297 -273 -311 -289 -352 -287 -346 -325 -301 -303 -311 -268 -295 -242 -310 -188 -297 -186 -264 -269 -289 -221 -294 -231 -330 -239 -349 -354 -325 -294 -328 -101 -289 -442 -370 -420 -420 -344 -407 -278 -386 -296 -363 -250 -338 -220 -339 -248 -351 -231 -349 -228 -297 -239 -298 -216 -297 -207 -309 -219 -318 -248 -353 -289 -346 -345 -370 -302 -357 -275 -325 -309 -339 -287 -359 -324 -347 -318 -350 -279 -354 -340 -359 -343 -366 -340 -382 -342 -392 -318 -359 -372 -364 -388 -376 -401 -389 -357 -383 -376 -372 -375 -355 -368 -342 -335 -330 -336 -306 -315 -312 -311 -322 -333 -312 -331 -337 -351 -321 -354 -293 -298 -285 -248 -314 -237 -326 -416 -356 -437 -405 -391 -404 -372 -379 -365 -367 -365 -372 -378 -359 -364 -359 -363 -351 -335 -339 -312 -322 -327 -355 -343 -362 -377 -381 -389 -396 -371 -373 -378 -362 -359 -359 -345 -356 -348 -350 -367 -346 -357 -355 -313 -350 -311 -350 -347 -350 -345 -347 -339 -344 -339 -347 -339 -355 -338 -354 -347 -368 -352 -362 -367 -371 -362 -362 -351 -351 -347 -346 -341 -334 -338 -320 -326 -326 -322 -316 -327 -325 -324 -348 -296 -340 -290 -321 -272 -334 -273 -353 -373 -379 -363 -407 -437 -422 -417 -436 -380 -416 -341 -369 -377 -363 -383 -361 -358 -349 -337 -337 -336 -350 -337 -362 -362 -370 -373 -385 -395 -387 -405 -382 -429 -397 -430 -400 -423 -405 -414 -396 -402 -383 -392 -378 -378 -375 -374 -357 -387 -355 -387 -395 -359 -391 -368 -392 -387 -383 -386 -395 -384 -380 -384 -385 -377 -380 -373 -390 -374 -400 -378 -374 -399 -370 -390 -379 -381 -367 -371 -375 -375 -382 -393 -392 -423 -380 -406 -377 -380 -390 -340 -409 -388 -407 -461 -424 -495 -440 -469 -442 -438 -421 -403 -405 -397 -390 -393 -376 -378 -364 -386 -348 -385 -344 -350 -351 -361 -361 -365 -376 -374 -393 -395 -391 -404 -395 -419 -395 -403 -393 -398 -417 -381 -417 -386 -408 -399 -411 -381 -415 -419 -419 -418 -420 -382 -423 -406 -414 -366 -392 -366 -382 -349 -384 -356 -379 -314 -381 -369 -367 -387 -381 -313 -371 -361 -350 -367 -370 -291 -372 -334 -348 -285 -336 -281 -342 -352 -358 -269 -381 -178 -374 -418 -385 -388 -413 -263 -397 -357 -367 -382 -428 -300 -415 -344 -398 -249 -383 -217 -359 -307 -339 -267 -365 -283 -370 -285 -392 -258 -398 -301 -446 -360 -421 -299 -403 -373 -395 -415 -411 -343 -407 -318 -404 -409 -418 -298 -415 -383 -393 -374 -398 -406 -414 -435 -394 -391 -399 -367 -403 -429 -397 -414 -400 -397 -397 -357 -401 -405 -395 -364 -447 -357 -395 -432 -388 -334 -393 -366 -382 -385 -389 -380 -401 -371 -367 -500 -364 -291 -434 -66 -483 -677 -481 -444 -421 -303 -377 -379 -401 -426 -402 -416 -412 -332 -404 -335 -422 -483 -373 -383 -369 -359 -375 -305 -375 -465 -375 -349 -474 -478 -417 -380 
#avR[uV]
731 2449 639 2347 536 2244 433 2141 324 2035 227 212 218 214 219 210 210 213 212 217 218 215 212 223 209 224 218 227 224 232 229 237 230 234 240 232 237 227 234 216 229 212 198 216 194 194 203 211 235 229 252 236 225 229 111 251 18 53 49 125 545 320 331 325 258 315 232 284 225 253 261 232 241 206 215 190 178 160 133 125 118 111 142 165 187 241 235 271 278 283 293 307 289 293 275 294 230 282 233 274 269 264 255 267 247 256 268 259 244 254 251 256 244 245 237 244 215 235 245 236 197 239 223 243 192 244 223 238 220 221 174 226 214 211 173 174 120 214 189 246 232 240 181 240 103 244 69 259 0 -533 18 365 484 352 242 304 135 236 177 201 168 181 155 163 124 154 75 134 -34 45 34 -38 47 -5 49 84 91 215 139 215 225 230 180 221 209 230 154 217 210 203 157 226 154 192 243 204 187 191 215 215 246 221 220 199 190 202 183 203 242 211 257 204 207 161 147 189 164 185 223 153 144 141 152 197 139 111 138 49 85 164 114 170 157 182 109 172 139 206 151 176 -139 -544 -116 458 591 384 266 334 143 184 272 204 227 203 167 207 176 169 187 166 99 63 74 16 12 7 59 86 140 202 187 215 227 243 220 209 201 195 201 209 204 187 221 204 184 178 197 222 227 193 145 204 202 217 193 209 220 178 177 212 200 209 200 209 187 221 215 192 184 189 172 207 221 167 228 213 173 170 191 170 117 107 130 126 189 153 205 214 117 229 136 231 153 8 -395 -598 336 515 403 334 153 159 89 122 136 110 147 149 132 152 110 117 69 47 61 40 9 -48 -45 -7 -1 35 189 153 237 260 156 190 193 217 209 195 213 218 164 165 179 133 167 202 191 213 188 178 168 145 168 178 170 167 185 206 136 155 166 159 158 153 168 217 196 178 149 157 211 170 156 169 151 180 204 204 159 127 168 185 113 91 98 128 140 182 198 200 186 154 171 208 164 212 -116 -568 -148 689 838 563 448 272 313 290 259 227 291 322 258 275 244 232 227 232 244 184 169 183 129 106 169 235 259 304 294 349 320 296 332 310 340 335 340 310 349 302 293 280 293 286 290 274 260 296 269 261 346 273 238 253 276 270 273 289 284 274 288 283 337 202 233 299 276 264 272 264 267 253 295 246 301 311 244 244 270 274 297 270 241 188 259 191 269 290 310 274 287 298 287 296 305 288 87 -514 -26 854 506 557 444 247 376 261 312 292 308 288 307 252 265 277 308 267 262 153 188 156 115 108 207 201 222 274 272 327 290 300 326 345 296 352 321 293 292 294 257 313 272 293 279 263 275 233 264 304 244 248 236 273 245 240 249 284 237 247 241 272 227 235 253 230 231 249 216 228 226 208 243 278 211 226 201 201 194 185 202 195 205 238 200 211 221 244 231 240 208 -342 14 670 302 512 385 258 363 270 306 232 270 240 231 227 220 217 210 201 192 183 155 31 141 58 139 110 190 100 220 212 258 302 271 245 270 328 263 288 249 249 253 280 259 277 258 262 252 252 231 269 239 288 240 216 236 227 238 249 243 208 229 226 225 231 217 219 211 213 198 189 182 96 184 152 170 86 168 127 187 107 206 95 192 172 193 -58 -420 -115 246 402 284 147 284 123 246 195 202 149 161 185 148 172 140 174 116 113 91 64 76 76 97 76 129 107 165 160 200 214 217 207 227 216 229 184 218 237 223 229 206 196 194 196 196 195 194 200 195 196 185 196 191 186 201 196 206 190 191 214 190 190 195 199 196 211 195 216 195 191 176 185 180 176 169 164 159 178 169 187 187 158 174 119 181 58 211 -1 -592 29 252 150 258 199 254 165 199 127 147 120 130 127 117 104 102 79 97 42 24 17 -41 13 -36 51 131 96 163 157 195 185 234 214 227 215 208 198 201 174 184 186 180 175 180 168 181 173 185 149 187 150 162 156 158 169 150 173 157 159 168 163 159 165 167 148 155 135 159 145 138 145 158 139 137 120 124 111 66 116 127 133 139 146 164 131 163 68 182 -8 61 75 -489 114 282 171 245 182 229 127 183 110 137 114 118 93 105 71 99 18 27 -15 -46 -37 -114 -30 -93 2 0 49 186 125 168 154 161 171 172 169 164 145 167 153 139 134 127 122 106 121 124 116 142 119 107 113 142 110 79 116 138 100 114 95 56 95 60 63 68 62 13 61 72 60 86 45 47 43 26 33 -30 26 12 44 61 60 57 36 100 -21 113 -68 -141 20 -292 332 332 210 324 187 215 179 190 173 164 165 148 131 151 105 128 49 92 24 -13 -7 -75 0 -38 53 108 116 230 166 241 117 169 151 197 165 192 182 158 173 158 135 208 160 142 155 176 144 188 119 190 164 186 145 175 146 214 123 164 94 205 175 226 138 163 92 152 17 107 64 206 135 162 155 182 85 179 124 208 4 -32 -118 -369 401 371 265 325 135 133 129 118 99 135 94 103 67 53 89 63 -3 42 -25 -79 -120 -95 -21 -99 -38 41 116 178 170 201 192 197 172 157 211 189 174 221 156 175 169 115 183 166 153 160 113 159 139 151 180 168 139 128 127 155 118 153 146 153 125 180 161 107 100 115 135 132 58 78 127 115 195 180 143 188 146 215 158 253 133 30 -456 -491 438 400 358 346 97 155 149 125 123 135 180 181 147 124 119 95 93 95 29 -35 -29 1 -9 -14 87 54 129 199 185 200 184 172 203 260 208 172 154 203 216 169 166 202 186 166 156 191 275 212 159 180 187 226 178 171 204 205 239 199 188 189 197 223 185 236 209 182 163 181 183 167 184 129 157 162 118 136 175 181 161 198 198 241 179 258 207 93 -360 -719 73 609 528 425 245 194 193 181 176 197 280 264 206 172 179 220 147 145 142 66 75 92 38 51 97 96 259 270 203 292 250 243 231 229 219 280 306 239 242 208 213 303 249 204 234 240 192 216 276 278 241 230 195 243 223 223 226 227 203 244 308 225 222 243 195 236 257 208 240 224 213 268 236 188 227 246 147 138 240 200 225 225 202 281 192 263 201 258 237 89 -415 -657 234 730 339 339 310 144 216 160 175 236 260 200 140 206 182 189 201 186 152 110 109 113 100 69 89 188 249 194 276 290 262 325 335 289 305 273 289 218 219 224 267 287 280 234 220 203 228 206 217 173 241 199 230 249 257 194 218 198 208 208 192 206 246 235 233 244 254 212 209 183 222 208 223 201 216 214 221 180 149 140 172 243 262 173 183 221 216 245 253 263 212 -95 -485 -208 352 518 346 214 235 120 172 119 163 157 134 91 116 79 107 105 29 41 2 5 -19 -16 -54 -47 105 59 168 161 175 215 223 237 215 174 193 185 165 185 185 207 188 158 193 159 167 195 182 178 171 169 180 198 165 147 159 125 149 175 135 130 156 116 163 172 151 131 140 142 131 147 139 130 114 104 91 69 113 129 124 190 146 124 153 88 143 105 106 -256 83 751 294 483 384 252 395 272 339 309 280 252 263 283 254 245 241 225 220 148 153 80 153 30 163 99 188 204 233 269 274 244 284 261 289 270 279 229 260 185 255 213 256 187 258 208 269 228 252 231 260 193 252 195 267 230 272 250 254 216 252 188 259 196 247 225 251 259 235 181 227 166 228 206 203 208 196 209 184 193 185 188 193 227 215 224 216 209 208 147 167 11 -194 -23 229 524 287 216 308 278 309 246 285 237 246 247 235 251 224 247 209 195 169 150 143 132 140 149 165 181 204 227 232 270 248 283 266 272 261 259 250 243 246 248 244 243 243 232 243 238 233 236 230 246 230 235 233 236 226 231 225 231 234 242 241 232 223 243 238 231 229 223 227 227 230 227 209 224 206 197 199 173 195 169 199 172 197 210 229 218 209 184 200 64 211 7 -18 165 257 505 331 334 343 318 369 270 342 265 297 286 276 281 257 252 226 226 205 196 192 159 193 175 222 205 238 256 269 307 287 308 297 320 291 296 284 277 279 263 277 255 260 265 253 250 254 249 251 252 262 252 253 252 259 255 244 250 249 227 235 234 242 231 246 232 239 227 237 234 214 249 206 223 209 213 206 214 201 203 220 227 217 255 208 230 205 130 203 51 192 159 258 658 330 364 357 325 345 279 308 297 298 285 273 280 243 272 224 236 190 208 171 163 177 177 213 210 247 255 282 301 295 327 306 255 298 293 280 312 302 261 283 193 283 263 280 213 273 279 271 251 269 237 270 237 261 214 268 235 256 223 240 138 243 181 248 166 240 114 229 188 218 206 200 103 192 164 211 198 210 185 210 141 194 105 202 158 113 -92 206 788 350 414 353 238 308 323 256 286 279 257 274 178 240 214 210 173 185 125 174 38 141 87 177 204 232 286 261 299 295 235 295 246 271 272 269 268 273 239 260 203 242 223 234 263 248 232 239 236 254 280 255 202 249 256 245 261 247 232 249 257 249 237 230 272 237 239 232 260 235 190 219 211 218 154 186 233 221 213 240 206 206 154 241 264 270 102 -92 -198 495 918 466 432 396 268 317 286 296 357 307 302 307 289 293 310 268 269 261 225 195 150 163 195 244 275 318 260 313 336 303 345 
#avL[uV]
-284 1521 -203 1610 -113 1701 -23 1791 70 1883 158 173 179 170 171 176 171 174 162 166 159 170 167 157 169 154 156 158 159 159 159 152 165 160 163 163 170 162 176 175 161 169 179 163 182 178 175 175 172 166 175 176 180 179 205 168 218 279 247 138 35 147 151 132 160 108 130 107 124 122 112 122 126 134 126 119 127 114 131 118 135 138 128 146 129 112 131 117 130 121 120 125 121 129 137 131 155 128 148 130 140 144 155 144 152 152 133 142 149 143 140 131 139 132 146 134 144 143 133 141 151 146 134 142 148 139 114 131 147 137 101 179 112 160 135 162 180 153 118 156 113 181 111 155 139 168 173 122 219 379 146 203 92 171 111 154 171 155 121 178 105 174 65 162 144 146 135 144 186 162 133 246 131 148 111 153 124 108 77 132 39 148 65 98 101 105 96 148 51 144 120 104 117 166 85 128 110 148 47 117 18 164 78 127 118 135 133 158 31 146 35 116 76 157 112 107 84 95 16 143 111 148 95 81 99 145 102 159 114 96 137 132 109 117 105 134 99 134 81 132 301 195 56 151 110 193 131 90 164 161 145 163 129 141 158 121 142 165 179 151 174 195 164 202 187 217 186 120 145 121 153 149 106 102 80 91 131 117 118 126 108 175 91 72 125 110 80 119 146 113 135 144 110 131 109 127 112 123 140 130 115 160 156 137 151 115 120 160 109 121 193 134 131 159 153 156 147 125 106 133 125 136 173 174 110 125 158 116 156 170 189 113 54 164 305 115 44 214 126 119 100 78 90 103 159 153 88 108 149 111 144 108 134 159 166 193 217 150 167 194 185 188 80 155 136 115 140 118 113 83 80 83 111 137 111 102 90 110 88 121 41 149 139 105 146 131 158 74 80 112 101 126 118 87 98 115 145 122 112 160 158 155 139 167 153 141 141 144 128 204 203 124 173 209 89 99 168 136 148 174 117 157 225 137 91 160 121 98 164 73 224 271 45 141 98 131 67 43 33 34 75 138 41 19 102 71 47 97 65 81 39 101 139 65 84 109 60 74 137 86 81 127 85 143 75 120 74 67 123 108 75 123 123 115 102 111 114 106 103 94 83 135 136 81 91 105 81 127 63 136 170 98 76 83 82 106 90 131 103 96 94 104 84 85 152 137 83 101 130 170 102 95 118 90 79 91 158 153 100 137 165 148 175 93 122 162 157 33 256 254 25 -13 137 107 94 68 70 74 82 69 63 75 76 74 75 31 76 78 85 75 95 89 133 96 138 131 114 108 135 70 112 104 122 73 179 74 90 86 142 125 157 102 97 85 98 92 135 145 108 72 118 109 95 76 118 111 100 146 85 105 97 97 103 108 119 133 118 100 115 137 102 124 123 125 107 95 96 100 122 158 126 147 117 124 155 124 159 133 131 115 136 321 158 -11 157 100 124 151 99 113 112 105 132 109 123 101 123 99 127 140 140 77 152 174 144 102 151 99 153 -301 94 107 105 23 125 118 131 -21 118 60 110 76 122 73 108 16 116 12 135 80 122 15 118 38 124 108 111 128 111 106 106 39 125 85 116 67 105 104 91 38 111 32 110 70 108 33 102 140 113 153 121 170 113 151 105 60 70 171 351 151 98 55 135 201 157 199 167 112 165 168 163 116 166 96 170 122 174 173 182 191 206 175 206 210 209 215 187 202 167 163 169 158 155 152 157 180 159 134 161 153 164 158 174 167 164 161 172 165 159 169 173 169 184 172 177 185 180 194 187 189 174 182 180 179 185 187 188 178 194 202 195 200 182 184 183 196 187 198 192 189 195 203 193 205 174 207 138 241 384 221 145 196 159 161 164 181 166 181 169 175 169 183 174 180 186 185 176 195 198 198 225 207 242 184 173 196 173 190 181 152 169 153 164 144 178 157 167 171 173 167 174 171 173 163 175 159 172 155 162 157 154 151 153 139 158 143 150 152 145 150 148 133 132 125 117 128 108 120 125 126 105 119 117 122 115 125 153 137 123 131 135 136 127 138 124 157 130 182 202 140 247 155 120 132 129 134 111 148 123 143 124 138 144 142 144 142 131 142 164 135 153 141 174 136 185 135 158 131 84 98 107 92 100 86 109 90 111 115 127 115 132 134 134 136 140 122 133 125 126 129 149 133 102 138 144 120 129 128 122 125 137 99 99 115 92 108 136 113 60 122 134 131 121 125 118 123 92 125 121 128 122 123 129 124 102 148 111 166 257 128 10 3 106 99 73 107 105 105 81 76 92 71 96 92 87 103 90 122 104 120 141 128 176 110 134 106 80 101 60 81 92 110 120 99 92 78 44 83 125 80 106 109 84 110 173 79 94 53 97 69 106 51 93 98 110 33 76 80 112 135 125 55 52 79 114 93 93 130 118 134 37 31 130 23 94 83 85 14 117 82 165 107 -26 -89 155 1 61 42 1 0 58 20 1 65 51 -9 82 22 73 68 88 129 222 173 139 121 162 142 136 125 76 106 118 73 96 110 170 90 101 128 83 116 94 71 166 139 120 111 108 106 134 71 131 130 139 151 136 101 128 108 127 90 111 115 70 117 166 141 141 79 69 120 129 108 156 151 137 118 173 126 134 164 157 115 185 294 111 80 234 191 124 160 147 153 172 199 231 180 142 167 158 139 185 220 131 201 225 187 199 165 197 221 195 140 140 133 148 146 137 137 179 165 161 166 139 143 192 156 144 173 203 172 181 196 169 188 198 151 153 208 262 203 178 155 177 200 201 135 176 191 153 240 202 158 153 168 221 137 155 153 180 197 207 175 132 164 214 196 203 130 167 125 172 392 225 163 220 128 172 128 141 145 163 171 156 172 177 142 156 145 172 167 119 129 141 146 215 179 128 128 209 188 172 128 80 111 147 107 104 126 192 175 87 81 101 100 147 136 139 110 106 107 86 166 174 107 153 143 86 120 179 142 134 128 116 161 195 141 138 146 160 216 219 115 166 191 134 143 191 145 138 157 192 225 203 185 176 178 206 151 162 192 166 124 215 410 210 141 221 214 135 91 144 99 150 160 178 182 150 167 179 89 101 179 83 76 138 127 141 88 144 176 101 69 151 101 32 81 130 163 131 82 69 85 125 132 62 80 107 127 83 105 106 100 78 91 167 87 91 83 80 116 128 110 102 109 71 123 162 71 85 161 86 126 85 117 127 121 115 107 131 125 82 120 83 133 153 136 112 166 173 171 145 128 85 138 93 128 293 268 128 98 125 130 139 131 98 135 149 131 105 127 158 149 171 170 121 192 167 164 133 223 172 212 199 138 172 128 132 148 111 147 129 131 172 135 133 154 127 143 138 147 176 145 153 162 100 136 141 146 109 180 177 167 175 164 173 148 117 166 151 185 157 178 158 150 162 163 129 155 107 162 75 166 87 152 167 160 101 158 78 174 117 185 221 172 168 192 204 175 -43 130 73 122 131 107 72 120 67 132 61 122 23 127 64 142 60 151 97 146 139 147 147 141 105 138 62 122 51 127 95 117 128 133 92 127 92 113 139 126 108 141 149 130 134 127 95 139 139 139 160 148 157 152 141 158 113 142 171 146 197 152 202 168 155 162 152 161 191 152 193 142 148 146 148 131 132 142 136 148 156 137 134 145 151 132 161 115 150 130 180 333 190 130 50 123 220 149 154 148 156 141 155 152 149 161 158 157 149 164 175 178 176 183 167 171 171 183 166 169 169 169 156 172 136 147 147 140 139 144 137 144 136 141 154 138 151 144 115 145 115 147 137 147 141 143 136 144 139 147 138 149 132 145 144 164 142 152 159 163 160 158 150 148 146 154 144 147 155 141 157 146 157 137 159 145 138 146 113 150 125 141 172 144 201 273 197 155 19 139 160 145 153 142 150 140 123 128 139 134 146 142 143 148 139 150 154 166 173 174 183 166 177 169 168 155 150 143 167 149 162 154 169 161 172 157 169 148 166 153 151 155 156 140 166 140 164 165 143 166 150 164 162 165 165 172 174 167 171 167 167 162 163 173 166 181 166 173 174 174 181 179 179 172 171 180 179 176 181 185 190 181 189 180 220 191 229 210 211 175 16 152 189 151 188 158 188 162 153 155 155 156 154 160 147 160 171 165 184 172 181 174 182 163 168 158 152 154 145 145 139 142 186 147 155 154 142 161 155 171 193 164 168 168 179 175 174 178 187 180 168 182 186 179 168 160 156 158 150 167 198 162 145 161 194 155 233 171 140 168 167 162 223 181 136 173 151 156 121 146 140 159 211 167 122 229 180 177 -80 113 84 133 78 143 106 147 143 181 97 174 169 178 79 182 76 176 168 167 181 203 169 189 111 178 51 167 76 187 152 168 101 167 143 161 177 172 138 175 137 182 195 196 91 187 171 175 162 171 164 183 225 170 165 176 145 178 206 173 181 175 179 182 131 182 184 180 143 217 172 186 218 182 173 201 157 176 182 171 182 198 201 155 243 138 167 372 148 114 48 127 117 117 93 124 141 152 141 148 160 155 104 156 96 182 227 149 174 179 194 200 131 159 210 122 131 198 190 161 112 
#avF[uV]
-446 -3971 -435 -3957 -423 -3945 -410 -3933 -394 -3919 -385 -386 -398 -385 -391 -387 -381 -387 -374 -384 -377 -385 -380 -380 -379 -379 -375 -386 -383 -392 -388 -390 -395 -395 -403 -396 -407 -390 -411 -391 -391 -382 -377 -380 -377 -372 -379 -387 -408 -395 -428 -412 -405 -409 -317 -420 -237 -332 -297 -263 -581 -468 -482 -458 -418 -423 -362 -392 -350 -376 -373 -354 -367 -341 -341 -310 -306 -275 -265 -244 -254 -250 -270 -312 -317 -354 -367 -388 -409 -404 -414 -433 -411 -423 -413 -426 -386 -410 -381 -405 -409 -409 -411 -411 -400 -409 -401 -401 -393 -397 -391 -388 -384 -377 -383 -379 -359 -378 -379 -378 -348 -386 -357 -385 -340 -384 -337 -370 -367 -358 -275 -405 -326 -372 -308 -337 -301 -368 -307 -403 -345 -422 -292 -395 -243 -413 -242 -382 -219 153 -164 -568 -576 -524 -354 -459 -306 -392 -299 -379 -274 -355 -220 -326 -268 -301 -211 -279 -151 -207 -168 -207 -178 -142 -160 -238 -216 -324 -217 -348 -264 -379 -245 -319 -310 -335 -251 -365 -262 -347 -278 -331 -272 -359 -328 -332 -298 -340 -262 -332 -264 -386 -298 -327 -309 -337 -316 -362 -274 -357 -292 -321 -284 -318 -260 -296 -248 -281 -239 -297 -256 -290 -248 -278 -239 -257 -241 -208 -200 -261 -252 -303 -266 -299 -214 -306 -238 -340 -232 -309 -162 349 60 -609 -701 -578 -398 -424 -308 -346 -417 -367 -357 -344 -326 -328 -318 -334 -367 -317 -274 -258 -238 -218 -199 -224 -245 -207 -286 -323 -341 -365 -333 -345 -300 -301 -333 -313 -320 -335 -312 -362 -312 -277 -310 -289 -277 -342 -373 -306 -280 -349 -313 -349 -302 -336 -332 -301 -317 -343 -316 -369 -356 -346 -339 -337 -336 -353 -294 -310 -366 -342 -353 -327 -381 -370 -321 -295 -297 -303 -243 -243 -303 -301 -300 -278 -363 -330 -273 -399 -325 -345 -208 -172 89 482 -381 -729 -529 -453 -253 -237 -180 -225 -296 -264 -236 -257 -281 -264 -254 -226 -204 -206 -227 -233 -227 -101 -122 -187 -183 -224 -269 -309 -374 -375 -296 -309 -306 -301 -289 -279 -325 -355 -276 -267 -270 -243 -256 -324 -233 -363 -328 -283 -314 -276 -327 -253 -250 -279 -287 -332 -255 -243 -264 -275 -304 -276 -281 -378 -355 -333 -288 -325 -364 -311 -297 -313 -280 -384 -407 -328 -333 -336 -258 -285 -281 -227 -246 -303 -258 -339 -424 -337 -277 -314 -293 -307 -328 -285 -108 296 103 -831 -937 -695 -515 -315 -347 -325 -334 -366 -333 -342 -360 -346 -291 -329 -292 -314 -284 -286 -308 -248 -213 -215 -230 -310 -397 -390 -376 -476 -406 -439 -407 -430 -415 -403 -463 -419 -424 -426 -416 -396 -396 -397 -405 -381 -364 -391 -353 -397 -483 -355 -330 -359 -357 -398 -337 -425 -455 -373 -364 -366 -420 -308 -324 -431 -380 -361 -366 -369 -351 -339 -447 -383 -384 -413 -374 -414 -373 -369 -415 -361 -321 -280 -418 -344 -369 -428 -475 -423 -463 -391 -409 -459 -463 -321 -343 260 0 -841 -643 -664 -539 -316 -447 -336 -394 -361 -372 -363 -383 -326 -341 -308 -384 -346 -347 -229 -284 -246 -249 -205 -346 -332 -337 -383 -407 -397 -403 -404 -449 -419 -476 -427 -412 -379 -434 -420 -415 -415 -370 -379 -378 -356 -411 -379 -372 -376 -362 -357 -331 -349 -364 -351 -349 -431 -322 -353 -339 -370 -331 -344 -373 -363 -349 -349 -332 -365 -328 -333 -366 -403 -319 -321 -298 -301 -316 -343 -329 -343 -323 -363 -355 -336 -380 -378 -362 -356 -344 20 -173 -658 -459 -612 -510 -410 -463 -384 -418 -338 -402 -350 -354 -329 -343 -317 -337 -341 -332 -260 -308 -205 -285 -160 -291 -210 -343 200 -314 -319 -363 -326 -397 -363 -402 -306 -381 -348 -359 -325 -375 -354 -368 -293 -374 -275 -388 -333 -353 -285 -358 -327 -364 -325 -348 -355 -350 -356 -349 -248 -355 -311 -342 -299 -322 -323 -302 -252 -309 -221 -293 -167 -293 -186 -272 -227 -281 -281 -309 -278 -320 -247 -297 -232 -264 -112 68 -36 -345 -457 -419 -349 -441 -322 -413 -307 -367 -317 -325 -301 -314 -269 -311 -296 -290 -286 -273 -255 -282 -251 -303 -287 -338 -323 -352 -363 -368 -377 -386 -366 -382 -369 -386 -364 -378 -372 -384 -383 -370 -355 -369 -364 -361 -356 -367 -366 -354 -366 -359 -365 -375 -359 -379 -381 -386 -384 -378 -403 -365 -372 -376 -378 -381 -399 -384 -394 -389 -394 -371 -385 -362 -361 -352 -361 -346 -377 -362 -376 -382 -362 -368 -325 -356 -265 -349 -240 207 -250 -397 -347 -418 -360 -419 -347 -365 -309 -316 -296 -300 -310 -292 -285 -288 -265 -274 -237 -223 -216 -183 -220 -206 -236 -304 -293 -336 -348 -377 -338 -404 -368 -391 -359 -386 -355 -369 -345 -358 -353 -354 -346 -353 -332 -357 -332 -357 -305 -350 -307 -316 -307 -312 -309 -308 -316 -308 -311 -314 -313 -307 -298 -299 -274 -273 -264 -268 -265 -263 -272 -264 -258 -255 -243 -240 -237 -219 -254 -250 -265 -274 -282 -292 -270 -287 -226 -313 -174 -264 -215 242 -270 -402 -303 -375 -316 -340 -275 -306 -253 -261 -253 -262 -236 -250 -213 -230 -161 -192 -120 -107 -104 -60 -106 -91 -138 -159 -181 -271 -224 -275 -246 -261 -257 -281 -259 -276 -261 -295 -269 -272 -269 -261 -258 -247 -244 -257 -241 -269 -249 -256 -247 -244 -248 -223 -237 -268 -228 -237 -220 -194 -195 -159 -179 -161 -171 -149 -174 -132 -183 -221 -177 -169 -168 -144 -156 -62 -152 -134 -173 -183 -184 -186 -161 -203 -127 -224 -98 -116 -149 281 -335 -438 -309 -398 -295 -321 -284 -271 -249 -257 -237 -244 -223 -239 -209 -219 -172 -196 -145 -128 -120 -100 -110 -95 -160 -189 -218 -290 -248 -334 -227 -289 -251 -289 -243 -236 -265 -284 -254 -265 -245 -293 -271 -316 -235 -271 -197 -286 -189 -297 -215 -279 -244 -286 -180 -290 -203 -277 -229 -331 -231 -278 -218 -278 -186 -246 -148 -225 -199 -244 -167 -292 -179 -277 -169 -264 -139 -325 -87 -133 10 396 -311 -527 -267 -386 -177 -134 -129 -176 -119 -136 -159 -154 -57 -135 -111 -137 -65 -131 -103 -142 -52 -43 -99 -62 -103 -178 -241 -255 -276 -319 -266 -294 -283 -327 -302 -290 -303 -305 -273 -269 -241 -281 -322 -287 -264 -269 -219 -294 -211 -283 -310 -308 -291 -265 -229 -283 -226 -281 -236 -264 -240 -251 -279 -273 -242 -257 -215 -202 -178 -207 -236 -271 -346 -317 -261 -362 -272 -350 -322 -411 -248 -216 162 380 -519 -634 -550 -471 -257 -302 -302 -297 -322 -366 -361 -324 -315 -283 -259 -280 -314 -226 -230 -190 -157 -200 -155 -182 -308 -249 -270 -339 -318 -349 -331 -310 -341 -440 -374 -333 -321 -342 -360 -361 -323 -346 -359 -370 -329 -373 -472 -381 -347 -378 -339 -379 -386 -434 -408 -383 -394 -376 -389 -390 -333 -399 -377 -389 -450 -385 -321 -334 -352 -389 -322 -285 -311 -342 -316 -344 -350 -313 -326 -413 -394 -444 -309 -426 -332 -266 -31 494 -237 -830 -657 -598 -373 -336 -338 -344 -348 -353 -453 -441 -349 -328 -325 -392 -315 -264 -271 -207 -221 -308 -217 -179 -225 -306 -447 -443 -332 -373 -361 -391 -339 -334 -345 -472 -481 -327 -324 -309 -314 -450 -385 -344 -345 -346 -300 -303 -442 -452 -348 -383 -338 -330 -343 -403 -368 -361 -331 -361 -469 -421 -363 -381 -341 -397 -473 -427 -356 -391 -405 -403 -380 -380 -373 -385 -305 -330 -466 -404 -410 -402 -381 -488 -344 -425 -393 -424 -362 -305 4 446 -375 -952 -554 -474 -402 -289 -315 -311 -336 -414 -442 -350 -307 -385 -271 -290 -380 -270 -228 -248 -237 -255 -188 -214 -265 -289 -319 -345 -378 -322 -344 -455 -499 -420 -387 -343 -374 -343 -351 -287 -348 -395 -407 -317 -325 -309 -328 -285 -309 -340 -328 -291 -314 -329 -374 -323 -329 -301 -317 -279 -315 -369 -318 -321 -395 -331 -380 -297 -326 -311 -344 -323 -330 -332 -341 -296 -342 -264 -282 -293 -308 -356 -429 -347 -355 -366 -344 -331 -391 -357 -340 -197 216 80 -450 -643 -477 -354 -367 -219 -308 -268 -294 -263 -261 -250 -265 -251 -278 -226 -222 -209 -167 -138 -203 -156 -157 -152 -243 -232 -297 -293 -323 -326 -370 -366 -347 -347 -328 -319 -319 -313 -328 -345 -335 -335 -338 -312 -329 -295 -319 -320 -318 -279 -361 -376 -333 -323 -324 -298 -298 -292 -301 -282 -342 -273 -341 -330 -301 -293 -304 -272 -287 -255 -302 -206 -280 -191 -243 -236 -274 -230 -282 -269 -321 -241 -338 -310 -316 -273 -299 51 -258 -707 -425 -556 -507 -384 -503 -345 -459 -376 -412 -313 -385 -307 -381 -309 -384 -285 -372 -245 -299 -219 -301 -177 -305 -205 -326 -266 -355 -321 -402 -339 -401 -390 -423 -362 -407 -321 -374 -325 -382 -322 -398 -336 -389 -343 -397 -323 -391 -371 -399 -354 -400 -353 -420 -372 -430 -364 -396 -387 -399 -385 -412 -399 -415 -380 -413 -412 -397 -372 -380 -359 -371 -354 -349 -356 -327 -341 -326 -330 -334 -344 -330 -362 -361 -375 -349 -370 -323 -297 -297 -192 -138 -166 -360 -574 -410 -436 -458 -433 -458 -402 -427 -392 -398 -397 -396 -409 -381 -397 -374 -370 -348 -326 -326 -300 -312 -320 -349 -348 -374 -396 -401 -427 -421 -420 -413 -419 -402 -399 -395 -380 -390 -385 -385 -397 -381 -384 -388 -354 -379 -352 -377 -384 -378 -377 -377 -372 -371 -370 -373 -370 -384 -374 -386 -376 -387 -386 -391 -391 -392 -383 -385 -377 -379 -374 -364 -368 -353 -352 -340 -331 -342 -326 -336 -332 -342 -348 -376 -331 -360 -309 -341 -237 -356 -209 -255 -362 -413 -525 -471 -495 -488 -471 -511 -421 -483 -388 -425 -426 -410 -428 -400 -395 -374 -366 -355 -350 -358 -332 -368 -359 -389 -382 -408 -424 -425 -457 -430 -476 -447 -482 -446 -466 -446 -449 -437 -433 -425 -421 -414 -416 -408 -406 -395 -415 -392 -416 -428 -395 -420 -402 -424 -418 -409 -415 -421 -401 -403 -405 -410 -398 -408 -396 -412 -394 -419 -401 -388 -424 -380 -404 -388 -392 -378 -386 -381 -383 -397 -408 -402 -445 -389 -420 -385 -350 -394 -281 -403 -370 -434 -675 -483 -554 -508 -514 -504 -468 -470 -451 -453 -441 -429 -435 -403 -420 -385 -407 -356 -393 -344 -344 -352 -360 -377 -379 -406 -408 -436 -447 -441 -467 -449 -442 -445 -449 -435 -454 -464 -416 -455 -386 -448 -431 -449 -392 -448 -454 -449 -439 -450 -405 -452 -423 -441 -382 -428 -392 -415 -373 -408 -337 -405 -326 -410 -360 -396 -348 -400 -329 -387 -374 -363 -327 -374 -301 -384 -350 -366 -306 -357 -282 -354 -317 -369 -281 -342 -87 -384 -708 -464 -498 -487 -316 -452 -430 -403 -430 -461 -354 -448 -347 -419 -293 -393 -250 -362 -293 -341 -219 -344 -256 -366 -316 -411 -337 -429 -375 -482 -388 -463 -347 -438 -416 -430 -445 -445 -377 -435 -340 -424 -418 -431 -355 -435 -404 -415 -398 -426 -444 -438 -428 -420 -421 -422 -406 -426 -438 -423 -439 -425 -416 -413 -403 -420 -423 -412 -403 -453 -363 -406 -430 -400 -328 -388 -391 -397 -396 -412 -388 -404 -355 -396 -507 -408 -270 -279 49 -610 -967 -594 -550 -514 -361 -441 -427 -449 -498 -455 -463 -462 -394 -450 -406 -451 -497 -410 -400 -374 -344 -363 -326 -403 -486 -440 -392 -512 -527 -464 -458 
