ADC Sampling rate (Hz):
100
Fragment duration (sec):
20
Number of samples exported by each lead:
1999

#I[uV]
-214 -123 -230 -448 -260 -106 -252 -67 -177 -29 -98 -164 -177 -199 -169 -153 -174 -129 -148 -158 -102 -192 -242 -215 -189 -191 -239 -208 -83 46 133 -128 -569 -495 -294 -195 -150 -214 -109 -83 -71 -71 -70 20 91 101 168 262 258 168 171 63 -63 -54 -38 -50 -94 -88 -137 -179 -159 -202 -173 -123 -175 -168 -189 -113 -161 -228 -278 -264 -198 -264 -200 -205 -53 -40 -20 -186 -587 -404 -262 -284 -199 -208 -221 -154 -191 -142 -68 -100 -4 81 95 169 114 54 28 -132 -204 -201 -262 -248 -248 -275 -259 -270 -293 -272 -320 -289 -234 -269 -260 -250 -209 -240 -293 -244 -247 -285 -293 -220 -118 -2 97 -147 -643 -445 -273 -276 -175 -211 -147 -109 -134 -77 -42 21 83 166 250 299 307 180 163 119 42 28 -6 -22 -42 -37 -72 -61 -22 -111 -107 -114 -86 -54 -91 -44 -77 -79 -76 -148 -139 -142 -155 -85 -77 -23 127 261 7 -392 -331 -109 -84 -82 -72 -39 -18 10 47 86 125 132 208 360 397 388 380 264 229 199 63 93 102 76 71 24 -1 8 10 -35 -61 -27 31 -25 -13 37 30 29 -5 19 31 -50 -88 -21 -20 45 32 111 302 355 17 -342 -189 -10 -2 -1 6 97 65 89 157 157 202 271 407 449 426 485 482 371 336 258 146 210 171 139 140 67 81 81 51 91 -11 23 37 -7 46 44 17 3 7 67 21 25 15 18 -7 29 22 -18 -1 -9 7 -10 0 16 -37 -3 -47 -55 10 -27 -33 -75 -41 1 -24 -11 -21 -45 -28 16 23 12 1 3 -1 25 52 13 27 33 -35 -22 -19 -5 175 330 288 -46 -392 -193 18 -29 29 0 -4 55 37 89 118 174 214 288 402 399 444 441 421 401 303 259 246 207 204 128 158 136 86 97 43 15 32 20 21 29 4 2 -46 12 25 31 12 -21 19 -39 -20 21 25 54 17 25 46 67 63 28 52 142 146 99 66 49 13 15 36 34 58 250 463 433 -144 -350 -134 16 111 42 96 75 191 195 187 183 255 324 403 496 488 563 494 470 384 284 288 223 259 212 135 177 128 98 137 88 102 40 67 82 26 69 74 102 96 94 98 65 68 89 134 150 136 133 116 85 75 -6 76 132 255 371 180 -144 -300 -182 41 82 105 116 136 160 142 164 209 251 368 405 481 492 468 527 424 332 321 243 252 215 204 155 134 154 143 95 92 79 76 159 105 54 118 108 101 127 126 127 61 33 101 86 -14 213 272 304 113 -310 -136 -48 57 127 79 112 122 109 155 172 230 272 379 356 380 460 395 433 315 209 163 92 148 137 86 90 50 -13 43 27 45 24 -32 18 86 -10 -13 -29 -78 -32 -81 -54 -34 49 109 165 -74 -410 -258 -72 -84 -39 -23 -39 -6 21 42 12 133 153 274 324 288 328 248 220 163 63 51 -26 23 -43 -16 11 -50 24 -8 -16 -55 -99 -43 -80 18 -36 -95 -105 -134 -81 0 -104 53 225 129 -182 -392 -158 -77 -76 -5 1 9 -21 28 36 60 108 185 245 293 351 360 315 210 146 112 10 -4 34 -32 22 20 -15 27 46 32 -11 1 41 55 11 -49 9 -8 -30 -44 -42 25 61 136 260 65 -365 -279 -39 -30 -4 2 6 79 77 66 89 99 196 265 356 411 385 397 311 251 154 97 115 41 45 74 104 57 -15 48 40 -15 -10 -4 21 14 -48 55 83 -2 80 52 -7 11 -41 7 31 -3 116 273 399 131 -247 -262 -68 41 14 39 66 61 110 87 149 188 198 287 342 447 435 433 385 342 292 169 148 145 75 84 128 108 74 72 62 50 19 -34 -17 -20 13 9 -29 8 8 -20 -44 -9 44 8 3 -17 12 -27 -1 -2 -12 -9 -3 27 0 7 -16 -4 -29 -19 12 17 15 -5 35 23 10 -21 1 24 29 37 12 1 76 51 5 37 38 91 61 38 9 -22 -16 8 57 70 145 144 253 -43 -303 -173 -70 3 -8 15 37 34 37 65 148 181 198 339 276 331 426 333 373 290 260 169 151 163 146 146 93 124 100 74 95 27 8 61 10 21 13 -11 -8 -42 -44 -28 3 -50 -31 -45 -33 1 -29 -37 -22 -41 -22 -39 -69 -24 -12 -2 -19 14 64 94 83 -20 2 -27 -62 -13 -2 51 132 107 219 -28 -363 -254 -57 -56 -29 -23 11 7 46 86 95 177 178 302 273 381 403 321 427 274 234 215 77 67 67 22 17 44 26 17 -38 -43 -21 -43 -40 -46 -48 -57 -74 -32 -73 -67 -46 -61 -39 -86 -59 -83 -40 1 -35 -52 -40 -8 8 3 64 15 -37 -50 -82 -62 -69 -66 105 240 270 -122 -433 -259 -42 -44 -47 6 7 -8 13 55 140 184 197 240 364 463 475 409 404 374 307 155 118 159 64 91 128 80 33 15 72 -18 -83 30 26 -23 -34 -84 -31 -79 -113 -48 -35 -34 -97 -69 -43 -70 12 -31 -48 -29 -12 27 23 -21 3 -21 -73 -50 -112 -5 51 198 366 224 -269 -414 -167 -78 9 26 37 18 57 75 66 175 235 326 297 434 529 522 523 444 392 284 212 208 110 76 29 39 30 16 -1 -40 -41 -53 -61 -121 -174 -58 -93 -117 -101 -161 -128 -111 -127 -90 -63 -95 -85 -57 -102 -98 -19 17 -54 -47 -143 -177 -113 -157 -40 -27 46 269 155 -362 -406 -251 -179 -98 -135 -95 -79 -93 -84 -8 -10 98 99 166 355 344 309 284 274 213 131 36 19 23 -44 -62 -96 -117 -71 -130 -141 -68 -172 -179 -120 -172 -214 -90 -138 -167 -134 -187 -110 -86 -109 -80 -67 -133 -175 -145 -119 -148 -150 -122 -103 38 141 -76 -438 -408 -257 -92 -116 -72 -70 -126 -66 -14 -5 16 65 123 153 184 316 325 224 167 205 142 -50 1 21 -1 0 -63 48 -14 27 -90 -92 0 -123 -102 -25 -25 -64 -95 -120 -136 -71 -87 -72 -59 -13 112 184 -34 -381 -273 -60 -63 -43 12 10 24 41 105 130 100 159 269 303 304 339 345 306 218 100 134 67 -31 32 20 8 36 -26 -11 55 56 28 -12 -5 8 6 32 -26 -89 -124 -57 -17 -9 3 68 275 -87 -456 -211 -63 -44 -83 0 28 7 61 70 54 92 180 222 305 403 375 392 372 330 205 40 32 50 62 43 13 0 66 16 -91 -11 -14 -12 -37 23 74 -20 -5 -73 -125 -87 -90 -29 -49 49 238 287 -32 -454 -285 -79 -105 -59 -52 19 -40 23 106 16 82 173 193 257 367 402 365 310 207 126 32 -21 -49 -55 -96 -100 -51 -115 -97 -69 -66 -159 -166 -102 -176 -171 -102 -142 -230 -161 -138 -121 -138 -184 -119 -150 -177 -188 -177 -170 -158 -98 -126 -135 -151 -150 -191 -132 -92 -115 -105 -110 -140 -57 -92 -161 -49 -81 -164 -106 -65 -97 -125 -104 -124 -133 -123 -141 -69 -111 -153 -82 -93 -24 -20 -67 -101 -135 -199 -214 -45 -104 -21 342 421 182 -451 -399 -144 -151 -21 -101 -92 -42 -40 -78 -15 34 112 213 228 277 315 391 376 292 322 240 178 74 94 143 47 19 41 30 18 -24 -46 0 -62 -100 -18 -112 -83 -106 -117 -14 -66 -35 -42 -68 -21 -41 -78 -26 -35 -42 -3 -13 15 67 63 61 73 -8 -33 48 -8 -11 19 106 276 394 144 -383 -269 -56 -11 65 2 37 51 58 156 196 206 191 288 355 409 496 529 566 425 339 249 189 149 100 120 99 56 69 95 74 30 -22 -3 2 -12 -33 -39 1 14 -35 37 37 -37 23 52 55 59 58 108 84 52 59 33 8 -3 10 19 74 182 276 129 -299 -317 -141 14 93 -13 19 80 88 32 92 158 225 321 300 372 394 421 434 366 362 231 109 125 111 73 55 72 21 51 76 4 56 30 -28 39 -26 -27 30 -92 -3 0 -27 28 32 54 34 38 55 28 9 -53 -73 -10 -4 -18 99 186 291 131 -285 -233 -103 -3 47 39 34 22 128 122 123 151 166 303 327 430 429 312 455 410 265 319 196 83 30 83 61 91 61 17 46 46 35 -42 29 2 -46 7 -3 13 -5 6 39 26 14 29 28 -62 -51 -30 -13 -8 108 168 348 120 -435 -243 -45 -51 6 -1 6 1 38 97 56 149 147 263 287 296 481 259 337 259 171 178 102 47 -8 8 26 3 31 -14 -86 -35 -39 -64 -60 -48 -36 -150 -54 -5 -37 -20 -54 2 7 -26 37 12 -35 -108 -80 -72 -63 28 -30 124 323 157 -111 -428 -296 -43 -67 -68 -39 -34 -19 2 56 111 136 205 189 289 386 313 439 313 317 230 118 146 29 81 31 45 8 37 32 -15 -25 -42 -79 -38 -37 -51 -62 -37 -49 -75 -105 -62 -66 -101 -35 -33 -76 -56 -60 -35 -74 -59 -50 -58 -34 -15 -74 -52 -21 -28 -97 -54 -29 -45 -44 -47 -96 -72 -49 13 -52 -35 0 -14 6 -24 -39 -5 -80 -36 49 17 -19 28 1 54 24 43 100 0 -23 14 -19 74 -9 111 288 75 270 -14 -358 -174 -44 -44 -61 2 -19 -6 -25 39 42 100 100 183 278 243 295 243 301 209 208 150 61 77 38 36 1 2 -27 -33 -73 -115 -117 -76 -151 -99 -73 -145 -154 -85 -133 -129 -90 -115 -132 -108 -62 -92 -121 -100 -80 -41 -80 -93 -101 -65 -66 -78 -61 -76 -70 -5 -88 -54 -11 6 36 -17 -11 -18 -93 -42 -77 -16 -37 -5 150 72 163 -188 -394 -290 -95 -97 -95 -52 -106 3 53 111 45 146 195 242 293 300 382 301 383 267 286 183 71 138 61 52 14 21 6 -113 -74 -72 -101 -99 -141 -142 -123 -97 -101 -177 -133 -147 -168 -129 -134 -153 -98 -95 -72 -57 -43 -42 -49 -100 -107 -124 -109 -142 -72 -110 -15 85 174 88 -440 -468 -205 -114 -138 -82 -45 -72 -8 -22 18 54 51 204 173 247 413 239 366 242 230 148 34 74 -2 -52 -28 -96 -108 -90 -118 -133 -161 -175 -177 -193 -174 -188 -228 -215 -200 -251 -198 -211 -268 -224 -242 -289 -365 -345 -333 -384 -222 -277 -199 31 107 48 -565 -487 -267 -209 -77 -195 -99 -55 -143 -58 -10 13 33 129 193 301 371 329 374 308 239 113 62 52 -33 19 -48 
#II[uV]
14176 13473 11327 10342 8411 7522 5639 4833 2847 2126 80 42 3 9 48 101 126 211 199 143 134 -20 -84 -83 -108 -42 -191 -179 -77 387 1070 381 -403 -456 -344 -119 -132 -117 -2 23 51 112 120 236 309 353 474 553 557 502 481 389 305 275 283 230 175 201 131 117 91 106 156 100 192 247 255 237 135 39 -63 -45 -90 -65 -135 -79 73 537 1100 273 -461 -303 -122 -17 -62 -42 36 78 35 77 160 206 242 396 467 507 501 466 367 181 96 42 69 50 28 20 -31 -25 -54 -88 -44 -10 113 101 111 46 14 -69 -147 -147 -177 -175 -298 -212 -131 373 1050 233 -634 -493 -333 -214 -159 -181 -102 -85 -78 -24 7 61 156 262 364 454 419 341 320 240 109 70 52 36 5 -17 -35 -74 -107 -184 -114 -102 -128 -47 1 17 -32 -122 -185 -286 -296 -362 -336 -344 -387 -361 115 905 330 -622 -692 -507 -333 -345 -346 -319 -270 -235 -185 -126 -69 -45 65 222 290 299 267 208 122 25 -123 -119 -62 -115 -155 -212 -211 -217 -254 -272 -320 -382 -238 -258 -234 -136 -115 -101 -196 -207 -265 -453 -412 -432 -421 -433 -442 -318 252 930 138 -804 -673 -435 -381 -413 -361 -296 -274 -253 -201 -171 -125 -36 103 181 237 278 291 167 74 46 -34 -71 -58 -73 -112 -176 -217 -205 -209 -235 -306 -263 -249 -312 -309 -273 -277 -319 -289 -293 -250 -253 -265 -286 -301 -246 -245 -288 -274 -282 -276 -323 -282 -255 -289 -280 -280 -282 -237 -304 -291 -306 -239 -223 -236 -203 -207 -246 -228 -238 -144 -89 -73 -64 -71 -26 -39 -114 -128 -162 -206 -153 -261 -277 -42 543 1048 281 -523 -426 -200 -210 -170 -227 -168 -72 -61 -22 37 29 111 233 331 404 460 451 452 411 338 276 259 212 221 154 152 99 51 39 -25 -47 -1 -37 -49 -78 -47 -90 -80 -73 -54 -86 -47 -77 -52 -71 -48 -81 -60 -49 -20 -53 -18 13 50 75 98 93 79 29 18 -49 -37 -92 -38 -143 -107 201 767 1031 133 -377 -222 -43 35 -7 23 43 114 101 142 196 288 350 437 591 579 688 618 652 515 417 453 322 352 293 244 246 215 153 153 124 150 47 103 87 53 85 75 82 105 143 177 148 269 234 265 210 198 114 61 22 51 5 -7 6 294 852 851 201 -282 -296 -25 4 34 40 89 129 136 160 254 271 403 463 560 657 640 709 618 542 489 385 355 295 315 253 237 208 180 137 149 117 134 208 217 208 298 329 233 204 151 64 65 16 106 -3 -59 106 571 1255 513 -307 -227 -138 85 41 96 83 112 105 185 199 326 349 483 525 566 667 630 623 531 328 332 210 237 187 180 128 139 36 136 136 134 179 176 169 183 72 -11 -78 -76 -124 -109 -212 -137 -22 457 1036 93 -657 -448 -295 -196 -174 -150 -172 -115 -76 -45 -61 70 113 273 346 401 437 362 287 178 48 -19 -136 -73 -106 -116 -100 -144 -84 -81 -137 -43 -81 -64 -170 -192 -288 -381 -410 -425 -381 -402 -459 -118 374 500 -222 -795 -638 -460 -444 -406 -375 -349 -340 -304 -276 -209 -133 -42 31 174 232 233 188 92 -66 -185 -320 -283 -278 -304 -287 -296 -327 -274 -264 -229 -242 -165 -165 -215 -291 -345 -457 -455 -511 -479 -532 -557 -442 -33 630 336 -725 -867 -638 -510 -531 -459 -490 -414 -373 -347 -325 -249 -177 -31 68 171 192 178 84 12 -122 -205 -234 -271 -267 -268 -237 -206 -337 -296 -302 -328 -356 -333 -296 -245 -233 -121 -113 -183 -214 -266 -366 -388 -417 -369 -407 -439 -361 57 717 357 -528 -734 -549 -347 -415 -337 -343 -307 -226 -240 -169 -77 -91 45 170 277 379 296 277 172 76 -30 -107 -117 -113 -104 -79 -135 -166 -144 -167 -225 -221 -292 -227 -281 -287 -235 -233 -281 -281 -276 -305 -269 -258 -240 -251 -261 -241 -252 -288 -266 -264 -255 -226 -220 -239 -179 -290 -204 -248 -234 -207 -172 -201 -194 -196 -196 -199 -181 -210 -138 -199 -123 -153 -110 -64 -87 -41 -13 -15 -18 -85 -80 -145 -155 -178 -94 -194 -108 108 533 1076 216 -518 -353 -254 -160 -191 -149 -139 -60 -74 -18 61 121 161 306 303 422 482 458 453 406 327 259 191 211 167 202 148 178 116 80 77 33 -21 31 4 4 -46 -20 -62 -63 -68 -39 -20 -45 -43 -50 -65 -3 -26 -32 3 -44 -35 9 -12 41 35 60 32 92 108 108 88 53 7 11 -78 38 -96 47 134 600 1353 434 -418 -283 -94 43 0 85 31 82 133 174 172 321 269 459 455 599 675 603 702 528 391 390 219 217 158 157 162 146 107 129 55 37 -8 0 -17 -23 -58 -47 -75 -26 -86 -59 -63 -62 -66 -69 -85 -61 -97 -36 -48 -55 -85 -33 -42 -41 -62 -59 -133 -107 -167 -96 -247 -184 58 663 1174 236 -549 -402 -233 -164 -226 -151 -183 -148 -105 -91 -29 57 46 157 270 419 464 421 406 317 216 98 18 35 -14 -29 -52 -52 -93 -148 -98 -154 -220 -159 -192 -217 -233 -246 -255 -285 -265 -227 -217 -241 -277 -273 -272 -214 -187 -160 -195 -200 -164 -165 -196 -208 -163 -182 -275 -223 -312 -263 -246 144 774 741 -99 -647 -399 -224 -215 -190 -209 -140 -143 -104 -85 -7 55 185 221 397 496 530 530 439 341 225 107 100 48 25 -17 -11 -40 -68 -91 -95 -119 -146 -176 -191 -197 -175 -197 -201 -224 -223 -232 -230 -190 -198 -163 -137 -141 -158 -158 -111 -95 -157 -156 -124 -191 -233 -254 -201 -250 -200 163 853 851 -182 -616 -391 -250 -232 -219 -215 -164 -195 -152 -53 -76 67 100 174 348 457 422 394 389 297 162 55 16 -38 -81 -134 -148 -179 -181 -227 -293 -217 -299 -301 -302 -355 -320 -329 -323 -320 -252 -292 -283 -205 -262 -287 -291 -389 -375 -370 -388 -399 -454 -493 -406 -32 629 428 -438 -840 -634 -450 -481 -337 -343 -341 -307 -294 -233 -234 -163 -96 49 84 191 232 152 104 73 -106 -281 -237 -328 -342 -274 -397 -303 -285 -308 -406 -372 -271 -346 -290 -236 -324 -325 -503 -607 -558 -619 -504 -586 -558 -389 102 700 -205 -988 -815 -587 -506 -534 -461 -382 -326 -347 -271 -245 -276 -69 43 126 216 263 269 215 105 -107 -149 -226 -314 -251 -275 -275 -200 -273 -304 -151 -133 -159 -136 -87 -174 -199 -233 -347 -420 -422 -339 -427 -452 -345 157 985 228 -743 -626 -505 -399 -357 -327 -306 -269 -189 -171 -161 -111 3 119 223 363 417 373 355 273 103 -37 -68 -75 -122 -143 -100 -90 -42 -94 -84 -45 -52 26 -9 -2 5 -188 -209 -271 -269 -278 -303 -295 -332 -200 418 1212 540 -468 -486 -312 -260 -267 -239 -209 -148 -86 -86 -109 -10 104 191 329 466 461 426 385 268 171 51 -6 -3 -14 -19 -11 -4 -54 -22 -51 -85 -128 -146 -90 -155 -150 -84 -150 -162 -190 -112 -80 -97 -128 -114 -82 -132 -150 -145 -121 -79 -99 -109 -93 -80 -83 -131 -76 -44 -44 -87 -54 -8 -36 -56 -87 -46 -36 -79 -50 -58 -48 -71 -58 -66 -68 -55 -82 -19 3 4 29 84 104 -10 -21 -63 -78 -150 -149 -126 -146 -73 521 1072 398 -356 -298 -154 -154 -133 -131 -93 -94 -68 -56 12 56 136 189 297 371 434 482 438 435 428 300 240 165 177 187 124 66 105 37 58 14 -19 11 -29 -108 -10 -88 -76 -64 -78 -84 -94 -54 -54 -94 -50 -98 -73 -74 -61 -51 -49 -54 3 -8 -30 -46 4 -55 -64 -73 -66 -132 -135 -35 501 1202 601 -333 -376 -256 -86 -87 -53 -52 -14 -33 76 117 125 128 279 310 434 563 610 610 507 409 239 171 135 78 114 18 51 22 38 -22 -57 -85 -81 -90 -131 -106 -145 -143 -120 -123 -121 -120 -131 -99 -74 -100 -39 -19 -7 -39 -115 -95 -126 -156 -155 -134 -161 -97 284 932 746 -234 -526 -402 -142 -97 -108 -146 -108 -69 -59 -24 90 102 228 273 424 512 527 538 466 402 296 124 128 67 88 71 86 18 31 25 -3 -56 -47 -105 -22 -79 -113 -71 -107 -70 -48 -52 6 -46 19 58 -35 -24 3 -97 -79 -142 -56 -114 -131 4 449 1218 722 -322 -372 -272 -49 -83 -44 10 11 44 89 114 186 164 373 419 565 631 603 658 614 455 400 219 161 98 174 127 128 106 59 67 102 62 8 -4 29 -30 68 54 100 181 201 186 133 78 56 -26 -52 -68 3 -116 -60 82 526 1381 564 -432 -307 -144 -16 -50 -14 17 48 98 121 124 252 244 413 439 546 733 562 638 529 470 397 188 212 123 158 145 154 143 143 68 71 68 28 35 40 -12 -44 9 83 61 153 143 224 233 183 158 103 -3 -20 -28 -21 -59 27 -112 389 819 526 375 -204 -339 36 -72 -16 19 35 39 106 117 274 276 403 402 527 657 604 726 592 622 500 348 382 258 309 250 257 227 240 195 147 153 118 61 107 97 91 54 109 71 73 68 89 69 73 93 116 47 74 78 114 105 106 108 116 112 155 98 134 116 143 110 120 127 142 133 161 146 114 144 212 170 179 146 203 222 198 165 229 156 208 236 306 327 355 391 373 376 338 327 279 253 273 179 377 137 515 722 477 1093 421 -164 139 146 185 131 198 191 222 238 298 296 379 398 517 617 611 746 617 735 602 594 528 436 435 402 367 333 318 274 264 234 183 192 209 191 180 149 148 139 203 145 155 155 156 122 148 171 157 128 152 152 191 136 139 159 183 139 163 159 156 186 234 225 179 208 254 253 193 234 206 135 175 86 240 37 350 556 477 1016 220 -276 -15 51 89 102 102 92 177 168 299 231 365 384 489 552 595 720 616 740 595 567 493 384 401 284 293 249 248 187 128 141 177 103 104 50 36 38 88 53 -1 39 53 -1 35 -11 12 97 91 42 108 97 97 80 56 7 3 2 43 -39 65 60 476 1187 495 -230 -330 -249 23 -64 45 11 16 59 49 109 143 178 384 314 478 606 544 623 503 467 337 267 254 128 107 71 14 -20 -2 -52 -55 -114 -76 -140 -162 -174 -122 -141 -80 -77 -66 -18 22 -20 -34 -49 -57 -214 -190 -251 -239 -275 -225 -186 384 1093 464 -486 -607 -461 -236 -240 -236 -215 -178 -217 -137 -112 -49 -8 98 151 344 437 449 461 399 280 123 35 -17 -71 -81 -137 
#III[uV]
14391 13597 11558 10790 8671 7628 5891 4901 3024 2156 179 207 180 208 218 254 300 340 348 302 236 171 157 132 80 148 47 28 5 340 936 510 165 38 -50 75 18 97 107 107 122 183 191 215 217 251 305 290 298 334 310 325 368 329 321 280 270 289 268 296 250 309 329 223 367 415 444 351 297 267 214 219 107 199 64 126 126 577 1121 459 126 101 140 267 137 165 258 232 226 220 228 306 247 314 371 338 386 412 339 314 300 243 332 299 276 295 228 245 239 184 276 278 347 370 372 297 224 170 146 97 70 109 -4 7 -13 376 952 381 8 -47 -60 61 16 29 45 23 56 52 50 39 73 96 113 154 112 161 156 120 66 41 58 58 47 19 36 -12 -84 -73 -6 12 -42 6 93 61 45 -43 -109 -138 -157 -220 -180 -259 -310 -337 -11 644 323 -230 -361 -398 -248 -263 -274 -279 -252 -246 -233 -212 -194 -177 -143 -137 -106 -88 -112 -56 -107 -173 -187 -212 -164 -192 -227 -236 -210 -225 -264 -237 -259 -355 -270 -233 -221 -174 -146 -130 -190 -227 -297 -403 -324 -411 -400 -478 -474 -430 -50 574 120 -461 -484 -425 -379 -411 -367 -394 -339 -343 -359 -329 -328 -308 -303 -267 -188 -207 -191 -204 -261 -212 -180 -281 -229 -213 -253 -243 -299 -287 -260 -326 -295 -287 -286 -304 -356 -318 -294 -322 -297 -360 -271 -278 -280 -304 -293 -275 -268 -269 -273 -272 -283 -312 -282 -272 -251 -276 -232 -226 -248 -277 -257 -231 -198 -225 -211 -191 -185 -201 -199 -255 -168 -101 -74 -67 -69 -52 -92 -128 -156 -195 -170 -131 -241 -271 -217 212 760 328 -130 -232 -218 -180 -199 -227 -164 -128 -99 -111 -80 -145 -102 -55 -70 4 15 9 30 10 35 16 12 4 17 26 -5 -37 -34 -57 -68 -63 -33 -57 -70 -108 -51 -92 -33 -85 -80 -117 -59 -56 -71 -32 -27 -102 -86 -104 -38 -78 -64 -53 -13 47 46 -49 -67 -69 -47 -98 -51 -107 -75 -177 -165 -49 304 598 278 -27 -87 -59 -75 -50 -73 -31 -77 -93 -44 12 32 26 34 94 91 125 123 182 130 133 165 99 92 80 109 69 86 54 15 36 48 7 35 5 27 15 0 -19 9 48 78 83 200 144 131 60 62 -18 -55 -63 -23 11 -84 -125 39 481 671 346 18 -113 -67 -77 -71 -76 -47 -31 -5 -4 44 20 35 58 78 164 171 182 194 209 167 141 102 80 110 97 102 53 36 41 57 37 58 48 111 153 179 221 131 77 25 -62 4 -17 5 -89 -45 -107 299 951 399 3 -90 -90 27 -85 16 -28 -10 -4 29 27 96 77 103 169 186 206 235 190 215 118 169 118 89 49 94 37 89 50 92 109 89 155 208 150 96 83 2 -48 1 -91 -27 -158 -102 -71 347 871 168 -246 -189 -222 -111 -135 -126 -132 -108 -98 -88 -73 -63 -39 0 22 113 108 114 66 15 -14 -70 -110 -97 -63 -100 -112 -93 -109 -73 -120 11 18 -21 -89 -210 -252 -286 -304 -290 -300 -403 -355 -172 149 370 -40 -403 -479 -383 -367 -400 -377 -358 -318 -332 -312 -269 -241 -228 -213 -119 -119 -127 -127 -118 -213 -298 -330 -279 -313 -271 -310 -316 -311 -301 -311 -261 -231 -167 -206 -271 -303 -296 -466 -447 -480 -435 -490 -583 -503 -169 370 270 -359 -587 -598 -480 -526 -461 -497 -494 -451 -414 -414 -349 -374 -296 -288 -240 -192 -218 -226 -239 -276 -303 -350 -313 -313 -343 -342 -263 -321 -345 -343 -313 -346 -328 -317 -259 -184 -177 -197 -180 -295 -318 -359 -399 -376 -376 -439 -435 -477 -216 317 225 -280 -472 -481 -388 -430 -377 -409 -368 -337 -328 -319 -265 -289 -242 -171 -170 -56 -137 -107 -169 -216 -200 -256 -262 -189 -189 -207 -243 -241 -217 -230 -275 -241 -258 -209 -261 -300 -245 -203 -289 -289 -256 -260 -260 -302 -248 -255 -244 -253 -225 -287 -263 -252 -246 -223 -248 -239 -187 -273 -199 -219 -215 -219 -190 -217 -189 -232 -219 -209 -159 -211 -162 -229 -160 -166 -111 -141 -138 -47 -50 -53 -110 -147 -118 -155 -132 -162 -103 -252 -179 -36 389 823 260 -215 -179 -184 -163 -182 -164 -176 -94 -111 -84 -87 -59 -36 -33 27 91 56 125 79 116 66 90 39 48 20 56 55 54 15 5 -17 6 -30 -29 -6 -17 -59 -8 -53 -21 -24 -10 -23 5 -11 -4 -32 -4 3 5 25 -3 -12 49 57 66 48 63 51 78 43 14 4 73 5 39 -16 51 -93 -3 1 493 1134 463 -54 -28 -36 100 29 108 19 74 87 88 77 143 91 157 181 217 272 281 274 254 156 174 141 149 91 135 145 101 80 111 93 80 13 43 23 22 -9 9 0 5 -13 7 -17 0 -27 16 -26 21 -56 -38 -13 -2 -45 -24 -50 -44 -126 -74 -96 -56 -84 -34 -177 -118 -46 423 904 358 -116 -142 -190 -119 -178 -158 -191 -140 -119 -147 -170 -127 -151 -82 -94 -43 -10 11 2 -57 -91 -57 -99 -124 -79 -120 -181 -133 -126 -164 -170 -135 -137 -189 -219 -193 -199 -161 -224 -206 -151 -178 -181 -206 -180 -203 -228 -144 -200 -128 -146 -171 -151 -192 -219 -187 -166 -161 -201 -173 -199 -258 -297 -53 407 516 170 -232 -231 -145 -225 -217 -246 -158 -201 -180 -152 -183 -180 -141 -76 -37 -33 7 6 -5 -51 -59 -105 -108 -62 -50 -46 -50 -71 -85 -90 -55 -77 -93 -115 -70 -22 -117 -103 -83 -123 -61 -103 -118 -62 -108 -100 -41 -55 -100 -56 -13 -75 -174 -102 -76 -47 -56 -141 -43 -210 -172 116 584 695 179 -210 -140 -70 -134 -83 -119 -84 -101 -68 -44 -66 -30 1 8 -6 112 112 109 114 83 31 19 -3 -61 -37 -71 -51 -62 -109 -96 -152 -149 -127 -122 -182 -182 -105 -238 -184 -153 -118 -104 -173 -119 -153 -206 -224 -255 -199 -224 -269 -250 -303 -371 -303 -70 488 505 0 -432 -376 -358 -364 -265 -273 -215 -241 -279 -227 -250 -229 -219 -104 -99 -125 -93 -72 -62 -132 -249 -230 -239 -350 -341 -274 -334 -351 -271 -336 -316 -280 -270 -223 -188 -210 -298 -261 -408 -486 -422 -548 -416 -513 -499 -376 -10 515 -171 -606 -542 -527 -443 -491 -474 -392 -351 -389 -376 -376 -377 -228 -226 -177 -88 -76 -75 -90 -113 -207 -284 -293 -282 -284 -295 -284 -237 -247 -293 -207 -189 -188 -123 -82 -182 -206 -265 -320 -330 -297 -281 -410 -443 -349 89 710 315 -287 -415 -441 -354 -274 -326 -334 -277 -251 -242 -216 -203 -176 -103 -81 -40 42 -18 -16 -57 -101 -77 -101 -125 -185 -186 -113 -91 -108 -110 6 -34 -38 39 28 -26 -69 -167 -203 -197 -144 -190 -213 -266 -282 -249 179 924 573 -14 -201 -232 -154 -208 -187 -229 -108 -110 -192 -126 -92 -69 -2 71 99 59 61 74 60 44 19 14 46 40 76 89 46 60 75 17 -18 30 19 11 21 20 17 -8 67 -28 26 40 40 55 5 67 45 38 31 49 78 0 17 42 71 67 60 55 48 70 17 55 132 21 36 73 3 44 85 56 7 48 54 46 58 65 68 58 49 115 157 111 177 128 9 46 37 57 49 64 -80 -41 -51 179 650 215 94 100 -9 -3 -111 -29 0 -51 -27 22 27 22 23 -23 69 94 118 90 62 142 105 59 62 90 82 44 77 46 64 6 39 39 27 11 32 -7 8 24 6 41 38 -69 -28 -18 -11 -26 -28 -56 5 -47 -25 -9 -46 -41 -12 -75 -93 -107 -68 -46 -30 -121 -58 -120 -154 -141 224 807 456 50 -107 -199 -75 -152 -56 -90 -65 -92 -79 -78 -81 -62 -9 -45 24 66 81 44 82 70 -9 -18 -13 -21 -5 -81 -5 -47 -57 -97 -87 -63 -77 -93 -118 -72 -105 -144 -134 -88 -159 -157 -93 -123 -126 -155 -99 -78 -115 -124 -168 -154 -160 -164 -152 -145 -180 -171 101 656 617 64 -209 -260 -156 -190 -94 -165 -188 -157 -92 -116 -68 -123 -92 -26 52 117 105 104 99 39 65 15 3 -43 15 16 13 -3 -20 -51 -7 -112 -78 -76 -62 -52 -85 -102 -15 -66 -48 -25 -21 -79 -34 24 -73 -79 -24 -107 -26 -68 -46 -109 -112 -94 263 926 590 -37 -138 -169 -46 -131 -84 -23 -11 -83 -32 -8 35 -2 69 91 134 201 291 202 204 190 81 23 77 67 91 66 36 44 42 20 55 26 51 -34 27 15 60 57 86 187 195 146 107 64 26 -54 9 -16 33 -102 -51 -26 357 1032 444 2 -64 -98 35 -57 -13 11 47 60 24 67 103 97 149 151 250 251 302 300 270 298 218 85 165 132 149 119 151 111 158 154 107 107 93 96 89 23 105 63 89 98 173 198 222 225 210 120 91 31 88 52 51 4 -1 -81 265 496 369 486 223 -43 80 -5 51 58 70 58 104 61 163 140 198 212 238 271 290 287 279 305 270 229 235 228 227 218 211 218 203 163 162 179 160 140 145 134 143 117 147 120 149 174 152 136 175 128 149 123 130 138 149 179 165 159 174 146 171 172 187 138 172 207 174 156 187 177 208 242 186 194 199 222 215 145 217 216 222 205 234 237 244 187 288 347 326 389 319 352 295 226 280 277 258 198 302 147 403 434 401 822 436 194 314 190 230 193 195 210 229 263 258 254 279 297 333 339 367 450 374 434 393 386 377 374 357 363 331 332 316 302 297 307 299 310 286 342 280 222 294 293 289 278 284 246 272 254 257 233 249 250 252 233 233 217 232 261 248 206 241 220 232 256 239 313 233 219 248 217 211 245 225 229 217 164 256 75 355 405 404 852 408 117 275 146 186 197 154 198 174 115 187 185 219 188 246 258 295 338 315 357 327 281 310 313 263 223 241 234 227 180 241 215 249 205 203 191 179 161 186 154 176 172 201 166 165 123 166 196 186 115 166 141 139 130 156 115 128 111 186 32 176 76 390 1012 407 209 138 -44 137 74 127 57 88 68 71 91 88 127 179 140 230 192 305 257 260 237 189 233 179 131 160 99 111 87 88 66 77 47 98 37 30 0 65 86 134 122 185 179 234 248 190 192 231 150 155 81 145 -53 52 13 352 985 415 79 -120 -194 -26 -163 -40 -115 -123 -73 -78 -102 -62 -41 -30 -42 43 66 119 86 90 41 10 -26 -70 -38 -100 -89 
#avR[uV]
-6981 -6675 -5548 -4946 -4075 -3708 -2693 -2383 -1335 -1048 9 60 86 95 60 26 23 -40 -25 7 -16 106 163 149 148 117 215 193 80 -216 -601 -126 486 476 319 157 141 166 56 30 10 -20 -24 -128 -200 -227 -321 -407 -408 -335 -326 -226 -120 -110 -122 -89 -40 -56 2 31 34 47 8 11 -8 -39 -32 -61 12 94 171 155 144 164 168 142 -9 -248 -539 -43 524 354 192 151 130 125 92 38 77 32 -45 -53 -118 -239 -281 -338 -308 -260 -198 -24 53 79 96 99 109 127 145 147 173 180 182 149 60 83 74 101 97 155 220 196 212 230 296 216 125 -185 -574 -43 638 469 303 245 167 196 125 97 106 50 17 -41 -119 -214 -307 -377 -363 -261 -241 -179 -76 -49 -23 -6 18 27 54 68 64 147 110 108 107 51 44 13 54 100 130 217 217 252 245 215 232 192 -121 -583 -168 507 511 308 208 213 209 179 144 112 69 19 -28 -43 -137 -291 -344 -344 -324 -236 -176 -112 30 13 -19 19 42 93 106 104 122 154 190 205 103 142 123 49 42 35 101 94 116 252 250 226 221 194 205 103 -277 -642 -78 573 431 223 191 207 177 99 104 82 22 7 -38 -117 -255 -315 -332 -381 -387 -269 -205 -152 -56 -69 -56 -33 -13 54 67 61 79 71 158 120 105 160 131 114 129 157 140 113 114 114 125 134 154 108 111 153 138 146 134 166 141 119 163 142 163 169 113 165 162 191 140 110 130 107 114 145 128 110 60 38 35 30 36 0 -6 50 50 64 121 87 140 141 -66 -437 -668 -117 457 309 90 120 70 113 86 8 12 -33 -78 -102 -162 -260 -367 -402 -452 -446 -437 -406 -321 -267 -253 -209 -213 -141 -155 -117 -68 -68 -9 16 -15 8 13 24 21 44 63 30 14 27 17 49 16 55 34 29 17 -2 1 14 -14 -40 -57 -51 -75 -117 -113 -64 -42 0 12 38 0 54 24 -226 -615 -732 5 363 178 13 -73 -17 -59 -59 -152 -148 -164 -189 -271 -337 -420 -543 -534 -625 -556 -561 -449 -351 -370 -272 -306 -252 -190 -211 -172 -125 -145 -106 -126 -44 -85 -84 -39 -77 -74 -92 -100 -118 -137 -106 -168 -162 -200 -180 -167 -123 -88 -53 -63 0 -34 -69 -274 -611 -515 -28 291 239 -7 -43 -69 -78 -112 -144 -139 -162 -231 -261 -386 -434 -521 -575 -554 -618 -521 -437 -405 -314 -303 -255 -259 -204 -185 -181 -161 -116 -120 -98 -105 -184 -161 -131 -208 -218 -167 -166 -139 -95 -63 -25 -103 -41 37 -159 -421 -780 -313 309 181 93 -71 -84 -87 -97 -117 -107 -170 -186 -278 -310 -431 -440 -473 -563 -513 -528 -423 -268 -248 -151 -192 -162 -133 -109 -95 -11 -90 -81 -90 -101 -72 -93 -135 -31 12 54 77 78 95 133 85 -13 -283 -600 -9 534 353 184 140 106 86 106 61 27 1 24 -102 -133 -274 -335 -344 -383 -305 -253 -171 -56 -15 81 25 75 66 44 97 30 45 77 49 90 54 125 86 162 238 258 280 231 201 281 32 -300 -314 202 593 398 269 260 206 186 169 181 138 119 74 12 -71 -138 -234 -291 -296 -252 -151 -39 36 155 143 122 168 132 137 171 123 109 98 127 82 62 80 140 197 223 232 271 262 287 265 190 -51 -445 -201 545 573 339 270 267 228 241 167 147 140 117 74 -9 -116 -212 -291 -289 -288 -197 -131 -16 53 59 115 110 96 66 74 176 124 130 171 183 168 137 115 140 33 14 92 67 106 186 188 229 180 188 221 122 -165 -558 -244 387 498 308 153 200 148 138 123 58 76 10 -55 -53 -166 -256 -362 -407 -365 -331 -257 -184 -69 -20 -14 19 9 -24 13 45 35 52 87 101 163 122 151 137 113 131 136 136 148 174 139 106 115 123 139 114 140 144 134 138 132 115 96 119 85 153 104 138 126 97 77 92 99 80 86 94 101 104 56 84 43 70 54 -6 18 18 -12 -11 -36 11 20 67 88 97 42 68 18 -127 -339 -665 -86 410 263 162 78 99 67 50 13 18 -23 -105 -151 -179 -322 -289 -376 -454 -396 -413 -348 -294 -214 -171 -187 -157 -174 -120 -151 -108 -77 -86 -30 6 -46 -7 -12 16 16 35 52 56 34 8 48 37 47 49 1 27 34 9 42 28 14 40 -8 -11 -29 -6 -53 -86 -101 -86 -16 -5 7 70 -12 49 -49 -133 -354 -786 -203 390 269 76 6 14 -30 -21 -44 -89 -130 -133 -249 -223 -380 -364 -490 -539 -462 -564 -401 -312 -302 -148 -142 -113 -90 -89 -95 -66 -73 -8 3 15 21 28 34 53 52 75 29 80 63 55 61 52 77 72 72 69 17 42 53 63 21 17 18 -1 22 85 78 125 79 158 125 -81 -452 -722 -56 491 331 138 104 136 72 88 78 46 18 -55 -121 -121 -199 -317 -441 -470 -415 -405 -345 -262 -126 -68 -97 -24 -30 -38 -13 29 66 13 86 151 64 82 120 133 165 143 182 189 138 126 138 187 171 158 142 87 95 122 115 88 68 86 114 79 102 174 137 212 134 97 -171 -570 -483 184 530 283 151 103 82 86 61 42 14 9 -83 -145 -256 -259 -416 -512 -526 -526 -441 -367 -255 -159 -154 -79 -51 -6 -14 4 26 46 68 80 99 118 156 185 116 145 159 163 192 180 170 158 144 113 116 113 108 130 105 57 70 105 86 167 205 183 179 145 113 -104 -561 -503 272 511 321 214 165 177 155 122 144 118 31 43 -82 -99 -170 -351 -401 -366 -339 -332 -255 -147 -46 -18 7 63 98 122 148 126 179 217 143 235 240 211 264 267 209 231 243 193 240 197 145 186 183 179 261 275 258 253 274 302 308 255 -2 -385 -176 438 624 446 271 299 204 206 233 186 154 119 108 48 -13 -101 -134 -253 -279 -188 -136 -139 -18 165 118 153 171 137 230 127 149 140 248 232 136 235 196 131 175 195 299 363 347 345 295 329 308 201 -107 -442 120 684 544 323 284 288 224 185 151 153 82 57 88 -44 -156 -214 -260 -301 -307 -261 -161 3 7 79 172 109 127 133 82 149 157 48 38 65 74 46 82 96 100 187 255 273 198 222 230 171 -112 -630 -70 599 418 284 221 220 163 138 131 64 50 53 9 -91 -171 -264 -383 -396 -383 -363 -302 -154 -1 18 12 29 50 43 44 -12 38 88 28 33 -7 23 -10 -39 104 107 172 197 182 197 162 190 75 -328 -749 -253 461 386 195 182 163 145 94 94 31 -10 46 -36 -139 -192 -293 -417 -431 -396 -347 -237 -148 -41 13 26 35 58 55 27 85 60 60 76 144 156 96 165 160 93 146 196 175 125 100 118 156 116 116 154 169 161 145 119 99 117 114 116 117 161 104 68 79 96 82 74 47 74 124 47 59 122 78 62 72 98 81 95 100 89 112 44 53 74 26 4 -40 15 44 82 106 175 182 86 125 47 -432 -747 -290 404 349 149 152 77 116 93 68 54 67 1 -45 -124 -201 -263 -324 -375 -436 -407 -364 -375 -270 -209 -119 -136 -165 -86 -43 -73 -33 -38 5 32 -6 45 104 14 100 80 85 97 49 80 45 48 81 35 69 76 50 48 46 26 33 -9 -29 -16 -7 -38 32 49 12 37 71 57 -35 -388 -798 -373 358 323 156 49 11 25 7 -18 -12 -116 -157 -166 -160 -284 -333 -421 -530 -570 -588 -466 -374 -244 -180 -142 -89 -117 -59 -54 -45 -67 -25 13 54 42 44 71 69 92 71 52 79 41 41 84 37 10 22 -10 -19 -50 -22 31 17 46 74 79 61 70 11 -233 -604 -437 267 421 272 63 1 60 63 13 -9 13 -33 -124 -163 -274 -287 -398 -453 -474 -486 -416 -382 -264 -116 -126 -89 -81 -63 -79 -20 -41 -50 0 0 8 66 -8 52 70 20 99 37 23 39 -17 6 -36 -46 -1 -15 -16 43 66 108 33 59 75 -51 -318 -754 -427 303 302 187 26 17 2 -22 -16 -86 -105 -118 -169 -165 -338 -373 -497 -530 -458 -556 -512 -360 -359 -208 -122 -64 -128 -94 -110 -84 -38 -57 -74 -48 17 -12 -16 38 -38 -25 -56 -87 -103 -112 -79 -46 -42 0 57 59 13 65 34 -95 -347 -864 -342 433 275 95 33 21 7 -11 -24 -68 -109 -90 -200 -196 -338 -363 -421 -607 -411 -487 -394 -321 -287 -145 -129 -57 -83 -86 -78 -87 -64 8 -17 -14 18 12 4 24 97 22 -38 -11 -66 -44 -113 -120 -78 -98 -58 19 64 54 47 61 -28 71 -257 -571 -341 -131 316 318 3 69 42 10 0 -9 -54 -86 -192 -206 -304 -296 -408 -521 -458 -583 -452 -469 -365 -233 -264 -143 -195 -141 -151 -117 -138 -113 -66 -64 -37 8 -34 -30 -20 4 -35 -11 1 18 -13 -1 14 -28 -41 14 -9 -9 -39 -15 -23 -29 -29 -39 -70 -11 -40 -47 -57 -6 -33 -48 -48 -44 -57 -24 -21 -47 -112 -58 -71 -73 -94 -114 -87 -63 -111 -37 -85 -143 -162 -154 -191 -196 -214 -200 -190 -213 -139 -115 -143 -79 -226 -63 -313 -505 -276 -682 -203 261 17 -50 -70 -34 -100 -85 -108 -106 -169 -169 -240 -249 -350 -448 -427 -520 -430 -518 -406 -401 -339 -249 -256 -220 -202 -167 -160 -123 -115 -80 -33 -37 -66 -19 -40 -38 -1 7 -58 -5 -12 -32 -20 4 -19 -54 -32 -3 -25 -35 -74 -27 -22 -28 -59 -36 -42 -48 -40 -57 -114 -68 -62 -98 -130 -144 -88 -111 -93 -21 -66 -4 -111 0 -172 -353 -275 -589 -16 335 153 22 3 -3 -24 7 -90 -111 -205 -138 -255 -289 -366 -423 -448 -551 -458 -562 -431 -426 -338 -228 -270 -173 -172 -132 -134 -97 -7 -33 -52 -1 -2 45 52 42 4 24 89 46 46 85 46 72 70 0 2 15 -25 -27 -27 -15 21 49 60 53 49 55 22 -22 -280 -680 -292 335 399 227 45 101 18 17 27 -25 -13 -64 -99 -115 -294 -244 -362 -510 -392 -494 -372 -348 -242 -150 -164 -63 -27 -21 40 64 46 85 94 138 126 159 177 174 155 184 147 139 159 108 94 144 129 146 173 289 267 292 312 249 251 193 -207 -600 -256 525 547 364 223 158 215 157 116 180 97 61 17 -12 -114 -172 -322 -404 -389 -418 -353 -259 -118 -49 -17 52 31 93 
#avL[uV]
-7302 -6860 -5894 -5619 -4466 -3867 -3072 -2484 -1601 -1093 -139 -186 -178 -203 -194 -203 -237 -235 -248 -230 -169 -181 -200 -173 -135 -170 -143 -118 -44 -147 -401 -319 -367 -267 -122 -135 -84 -156 -108 -95 -97 -127 -130 -97 -63 -75 -68 -14 -19 -83 -69 -130 -216 -191 -180 -165 -182 -188 -203 -238 -205 -255 -251 -173 -271 -292 -317 -232 -229 -247 -246 -241 -153 -232 -132 -165 -90 -309 -570 -322 -357 -252 -201 -276 -168 -187 -239 -193 -208 -181 -148 -203 -126 -116 -138 -84 -136 -179 -155 -223 -252 -222 -297 -274 -262 -285 -244 -257 -266 -228 -298 -283 -290 -319 -316 -273 -217 -205 -220 -171 -159 -197 -144 -114 -52 -189 -427 -264 -325 -199 -106 -168 -95 -120 -96 -66 -95 -64 -46 -9 4 34 68 72 97 9 3 0 -12 -6 -32 -40 -44 -28 -54 -24 31 -18 -50 -63 -21 -30 -92 -52 -61 -18 16 -4 9 39 12 86 116 157 69 -191 -157 -81 15 144 81 90 100 119 116 128 140 149 160 154 176 249 252 238 246 160 168 186 125 152 133 134 149 130 104 116 137 100 99 163 151 103 104 106 88 80 92 123 164 176 118 195 189 261 253 270 176 -109 -51 59 147 207 188 205 187 245 202 216 258 243 265 290 355 358 307 346 337 287 298 235 163 245 200 176 197 155 190 184 155 208 141 155 162 148 201 181 155 162 152 214 146 151 147 161 142 152 145 125 135 131 145 151 141 144 107 136 92 85 129 125 111 77 78 113 93 89 82 77 85 136 95 56 38 35 33 38 72 71 91 114 67 54 111 132 196 59 -236 -187 -130 19 118 75 114 113 79 91 68 100 99 160 158 172 236 197 214 216 195 195 134 121 117 101 93 50 82 86 60 77 56 39 32 38 46 68 28 47 -6 49 52 74 35 17 45 -3 3 62 55 79 28 51 55 60 38 -9 2 95 106 84 56 74 32 61 55 105 112 149 79 -82 -211 -161 -23 38 93 46 84 53 134 144 116 85 111 149 184 200 198 218 185 144 126 75 61 61 83 66 12 53 20 21 60 26 26 16 15 38 0 27 37 60 43 22 10 -8 -66 -27 1 45 37 75 86 74 49 -8 80 128 107 -55 -245 -245 -159 -34 54 80 88 96 92 95 74 84 82 115 166 173 201 163 148 172 114 61 77 51 74 67 46 29 15 50 53 26 17 21 9 55 -2 -49 -30 -56 -14 24 50 94 28 25 48 88 15 160 -13 -323 -143 -157 -23 20 15 106 31 70 66 57 63 72 66 97 137 93 96 126 80 121 50 45 -3 -12 29 43 -4 26 -19 -31 -24 -41 -22 -65 -120 -66 -4 -47 -8 9 -39 29 -26 51 34 60 -119 -353 -121 -82 -34 74 13 48 51 46 51 59 65 42 98 96 137 150 87 110 67 77 74 39 61 42 60 9 41 62 21 66 32 52 -33 -58 -10 4 114 107 95 99 77 109 202 125 112 38 -120 -71 5 160 152 145 197 189 184 148 180 174 164 175 206 229 206 235 243 221 164 180 205 170 137 173 119 166 168 147 164 179 147 109 84 123 163 157 123 238 219 225 195 223 304 282 152 -54 -102 -3 154 279 224 260 231 252 287 264 240 251 224 285 280 322 325 288 308 268 245 215 200 233 177 179 208 223 160 153 196 192 148 168 162 169 136 67 116 140 89 187 185 176 205 167 192 235 215 297 245 40 -46 16 105 206 214 222 208 238 214 224 207 234 227 244 264 257 309 245 285 246 255 254 185 202 203 132 137 167 175 157 145 146 163 130 112 95 120 156 127 87 148 148 117 107 125 173 128 129 113 132 98 142 130 120 118 110 138 120 97 128 97 95 97 115 103 116 91 133 121 109 69 106 93 129 99 89 56 109 95 26 44 45 100 104 78 82 54 72 56 155 125 91 -122 -285 -151 -43 2 57 83 86 89 107 64 74 75 118 120 117 186 124 119 185 103 146 86 97 39 56 57 62 44 18 34 42 34 56 10 19 45 8 19 36 -1 22 -10 -10 -9 13 -27 -10 -20 0 2 -16 -21 -24 -18 -4 -44 -63 -45 -30 -32 -35 -31 10 39 39 -47 -1 -33 -22 -32 45 27 65 -192 -457 -245 -154 -113 -10 -78 -29 -65 -4 -33 -20 -1 8 16 43 72 45 82 65 20 76 10 38 20 -31 -40 -12 -56 -63 -28 -27 -46 -65 -62 -17 -43 -31 -34 -19 -33 -37 -18 -30 -37 -14 -30 -5 -51 -16 -52 7 20 -11 -24 2 7 29 24 95 44 29 3 0 -13 53 26 76 -91 -317 -240 -158 -58 74 37 65 82 99 65 66 101 155 156 174 161 229 253 243 199 201 215 199 106 108 141 71 105 155 106 80 89 121 58 26 109 123 84 82 38 96 63 19 65 73 86 41 67 92 36 106 48 49 70 69 110 121 83 85 69 63 61 43 126 174 125 -20 -146 -220 -91 31 33 117 121 142 88 129 128 109 179 208 234 187 236 281 257 258 224 222 172 159 158 86 63 37 45 51 50 44 7 18 20 26 -25 -75 29 5 -17 10 -49 -12 3 -32 9 18 -27 -14 21 -23 -42 28 95 23 14 -47 -60 14 -57 85 72 -34 -157 -269 -271 -98 -55 -54 17 -25 12 2 3 -7 17 28 64 48 78 180 115 98 87 80 65 50 8 11 42 -3 4 -22 -27 19 -17 5 40 -22 -28 31 5 -54 74 22 -6 -7 -41 31 16 22 63 78 60 11 39 75 51 76 124 99 54 -173 -290 -219 11 59 133 124 96 101 44 87 132 111 133 147 171 129 142 220 209 148 115 168 196 89 120 186 170 137 135 199 128 182 112 93 134 49 42 92 136 98 156 183 142 238 164 220 220 181 61 -165 68 112 134 233 189 223 243 201 188 215 240 253 239 193 247 240 196 208 210 198 165 154 209 180 125 158 158 146 137 110 140 131 122 108 55 38 95 106 148 146 120 86 112 196 217 176 -10 -217 -201 -84 102 189 155 95 163 181 142 156 156 135 147 178 163 193 221 166 205 194 193 153 59 66 88 124 114 63 45 87 63 -48 11 11 -26 -32 25 72 73 99 62 9 51 61 118 116 149 29 -318 -303 -220 -42 76 24 74 67 124 33 66 149 71 87 121 98 92 133 171 151 118 73 40 6 -18 -48 -48 -86 -94 -49 -88 -86 -43 -23 -95 -93 -57 -99 -95 -60 -66 -149 -66 -82 -80 -89 -120 -62 -108 -111 -113 -104 -109 -118 -48 -71 -88 -111 -109 -126 -94 -70 -93 -61 -83 -136 -39 -64 -117 -26 -63 -124 -81 -36 -72 -90 -75 -91 -99 -96 -100 -59 -113 -155 -97 -135 -76 -15 -56 -69 -96 -124 -139 17 -31 14 81 -114 -16 -273 -250 -67 -73 45 -36 -46 4 -6 -50 -21 6 44 118 79 91 98 150 156 75 108 90 58 -8 6 49 -14 -13 -11 12 -10 -31 -36 -5 -47 -46 -13 -68 -44 -74 -77 27 -19 -8 -15 -20 3 7 -42 10 -4 -16 21 14 14 71 78 84 70 18 -1 84 24 54 86 124 25 -206 -155 -217 -81 71 31 109 29 63 58 75 117 137 143 127 148 200 192 215 224 261 171 134 129 104 81 61 62 90 30 58 76 85 59 20 36 47 53 19 32 73 74 26 98 97 28 73 89 105 79 68 111 104 110 107 96 86 74 77 100 123 40 -189 -244 -181 -53 59 85 142 40 92 134 122 62 104 113 174 207 163 160 138 158 165 133 161 82 46 61 77 29 19 29 12 35 64 6 84 54 23 50 12 29 66 -38 31 24 0 24 56 44 4 56 67 26 58 -13 -2 18 52 47 96 -38 -317 -229 -123 -47 32 21 89 62 28 16 105 77 66 58 84 116 117 147 113 10 126 103 37 118 86 2 -18 -4 -2 27 8 -12 13 -4 4 -46 32 -12 -30 -26 -30 -36 -96 -94 -53 -40 -24 1 41 -35 -17 -31 44 21 67 -94 -342 -162 -219 -89 26 -43 32 6 -2 -23 -10 36 -5 22 24 57 68 23 115 -21 18 -5 -63 -20 8 -58 -70 -70 -46 -73 -40 -86 -120 -71 -73 -79 -78 -69 -30 -127 -59 -47 -68 -96 -126 -109 -108 -118 -41 -39 -33 -98 -66 -61 -34 15 25 -70 -86 -105 -298 -325 -126 -62 -31 -60 -49 -52 -39 -51 -2 -26 -2 3 -11 25 57 11 76 17 5 -19 -55 -44 -99 -73 -93 -83 -104 -83 -65 -89 -102 -101 -110 -92 -86 -97 -90 -92 -85 -112 -139 -107 -101 -138 -82 -91 -100 -93 -99 -92 -126 -112 -104 -116 -90 -93 -123 -120 -79 -100 -152 -114 -93 -116 -110 -128 -169 -129 -122 -92 -137 -125 -72 -115 -105 -123 -122 -119 -158 -140 -69 -135 -183 -148 -193 -132 -163 -126 -62 -140 -150 -121 -109 -114 -78 -145 -73 -163 -275 -225 -276 -244 -117 -137 -127 -96 -115 -117 -144 -109 -106 -89 -98 -74 -30 -62 -77 -65 -66 -91 -88 -113 -156 -140 -162 -147 -165 -157 -164 -165 -190 -207 -213 -181 -246 -189 -148 -220 -223 -187 -206 -207 -168 -194 -193 -183 -148 -170 -185 -176 -157 -137 -149 -163 -181 -156 -136 -159 -141 -154 -163 -122 -201 -143 -115 -121 -90 -114 -128 -122 -161 -130 -121 -136 -56 -180 -127 -166 -344 -298 -255 -283 -120 -141 -146 -103 -152 -85 -30 -38 -69 -36 3 -1 17 2 22 -6 12 -29 2 -63 -120 -62 -80 -94 -109 -102 -86 -177 -145 -160 -153 -151 -166 -161 -142 -141 -128 -176 -152 -174 -167 -147 -128 -159 -147 -140 -94 -111 -92 -90 -90 -128 -111 -126 -110 -164 -52 -143 -45 -152 -418 -159 -325 -303 -80 -125 -106 -105 -51 -80 -38 -46 -36 -16 -37 12 16 8 110 -32 54 -9 -3 -20 -99 -52 -66 -106 -63 -103 -97 -89 -92 -105 -104 -136 -107 -112 -87 -127 -157 -174 -161 -218 -189 -223 -258 -207 -217 -260 -257 -250 -207 -265 -84 -165 -106 -160 -439 -183 -322 -183 -36 -91 43 -77 7 34 -34 10 46 37 37 80 117 129 152 105 144 108 99 51 44 61 2 59 20 
#avF[uV]
14283 13535 11442 10566 8541 7575 5765 4867 2936 2141 129 125 91 108 133 177 213 275 274 223 185 75 36 24 -13 53 -72 -75 -35 363 1003 445 -118 -209 -197 -22 -57 -9 52 65 86 148 155 225 263 302 389 421 427 418 395 357 337 302 302 255 223 245 200 207 171 207 242 162 280 331 350 294 216 153 75 86 8 67 -35 23 100 557 1110 366 -167 -101 9 124 37 61 147 155 131 148 194 256 245 355 419 422 444 439 353 247 198 143 200 174 152 158 98 109 92 47 115 133 230 236 242 172 119 50 0 -24 -53 -32 -151 -102 -72 374 1001 307 -313 -270 -196 -76 -71 -75 -28 -30 -11 14 28 50 115 179 239 304 266 251 238 180 88 55 55 47 26 1 0 -43 -96 -128 -60 -44 -85 -20 47 39 6 -82 -147 -212 -226 -291 -258 -302 -348 -349 51 775 326 -426 -526 -453 -290 -304 -310 -299 -261 -241 -209 -169 -131 -111 -38 42 92 105 77 75 7 -73 -155 -165 -113 -154 -191 -224 -211 -221 -259 -255 -290 -368 -254 -246 -227 -155 -130 -116 -193 -217 -281 -428 -368 -422 -410 -455 -458 -374 101 752 129 -633 -578 -430 -380 -412 -364 -345 -307 -298 -280 -250 -227 -172 -100 -43 24 35 49 -18 -93 -83 -107 -176 -144 -143 -183 -209 -258 -246 -234 -280 -300 -275 -268 -308 -332 -296 -285 -320 -293 -327 -260 -265 -273 -295 -297 -261 -257 -278 -273 -277 -279 -317 -282 -264 -270 -278 -256 -254 -243 -290 -274 -268 -219 -224 -223 -197 -196 -223 -214 -246 -156 -95 -73 -66 -70 -39 -66 -121 -142 -179 -188 -142 -251 -274 -129 378 904 304 -327 -329 -209 -195 -184 -227 -166 -100 -80 -67 -21 -57 4 88 130 204 237 230 241 211 187 146 135 108 119 90 73 30 8 -8 -46 -55 -17 -47 -59 -93 -49 -91 -57 -79 -67 -102 -53 -66 -61 -52 -37 -92 -73 -77 -29 -65 -41 -20 18 61 72 22 6 -19 -14 -73 -44 -99 -56 -160 -136 76 535 814 205 -202 -155 -51 -19 -28 -25 6 18 3 48 104 160 188 235 343 335 406 370 417 322 275 309 210 222 186 177 158 151 104 84 80 99 27 69 46 40 50 37 31 57 95 127 115 234 189 198 135 130 47 2 -20 14 8 -46 -59 167 666 761 273 -131 -205 -46 -36 -18 -17 20 48 65 77 149 146 219 261 319 411 406 445 406 375 328 263 228 188 212 175 169 130 108 89 103 77 96 128 164 181 239 275 182 141 88 0 35 0 55 -46 -52 0 435 1103 456 -152 -158 -114 56 -21 56 27 51 50 107 113 211 213 293 347 376 436 433 407 373 223 251 164 163 118 137 83 114 43 114 123 112 167 192 160 140 78 -4 -63 -37 -107 -68 -185 -120 -47 402 953 131 -451 -318 -259 -154 -154 -138 -152 -112 -87 -66 -67 3 36 136 184 257 272 238 176 96 16 -45 -123 -85 -84 -108 -106 -119 -96 -77 -129 -15 -31 -43 -129 -201 -270 -334 -357 -358 -341 -403 -407 -145 261 435 -131 -599 -558 -421 -405 -403 -376 -354 -329 -318 -294 -239 -187 -135 -90 27 56 53 30 -13 -140 -242 -325 -281 -295 -288 -299 -306 -319 -288 -288 -245 -237 -166 -185 -243 -297 -320 -461 -451 -496 -457 -511 -570 -473 -101 500 303 -542 -727 -618 -495 -528 -460 -493 -454 -412 -380 -369 -299 -275 -164 -110 -34 0 -20 -71 -113 -199 -254 -292 -292 -290 -305 -289 -235 -329 -320 -323 -320 -351 -331 -307 -252 -208 -149 -155 -182 -254 -292 -363 -394 -397 -372 -423 -437 -419 -79 517 291 -404 -603 -515 -367 -422 -357 -376 -337 -282 -284 -244 -171 -190 -98 0 53 161 79 85 1 -70 -115 -181 -189 -151 -147 -143 -189 -203 -180 -199 -250 -231 -275 -218 -271 -293 -240 -218 -285 -285 -266 -282 -264 -280 -244 -253 -253 -247 -239 -287 -265 -258 -251 -225 -234 -239 -183 -281 -201 -233 -224 -213 -181 -209 -191 -214 -208 -204 -170 -211 -150 -214 -142 -159 -111 -103 -113 -44 -32 -34 -64 -116 -99 -150 -143 -170 -99 -223 -143 35 461 950 238 -367 -266 -219 -162 -186 -157 -157 -77 -92 -51 -13 30 62 136 165 257 269 292 266 261 196 174 115 129 94 129 102 116 65 42 29 19 -25 1 -1 -6 -52 -14 -58 -42 -46 -24 -22 -20 -27 -27 -49 -4 -11 -13 14 -24 -23 29 22 53 42 61 41 85 76 61 46 63 6 25 -47 45 -94 21 68 546 1243 448 -236 -156 -65 71 14 96 25 78 110 131 124 232 180 308 318 408 473 442 488 391 273 282 180 183 125 146 153 123 94 120 74 59 2 21 3 0 -34 -19 -38 -10 -50 -26 -40 -31 -47 -26 -55 -19 -77 -37 -31 -28 -65 -28 -46 -42 -94 -67 -115 -82 -126 -65 -212 -151 5 543 1039 297 -332 -272 -212 -141 -202 -155 -187 -144 -112 -119 -99 -35 -52 37 87 187 226 216 204 130 62 20 -40 -44 -46 -74 -117 -92 -109 -156 -134 -144 -178 -174 -205 -205 -216 -204 -240 -245 -208 -203 -199 -224 -228 -238 -250 -179 -194 -144 -171 -185 -157 -179 -207 -198 -165 -171 -238 -198 -256 -260 -272 45 591 629 35 -439 -315 -185 -220 -204 -228 -149 -172 -142 -119 -95 -62 22 72 179 231 269 268 216 144 83 0 -4 -6 -12 -31 -31 -56 -76 -90 -75 -98 -120 -145 -130 -110 -146 -150 -142 -173 -142 -167 -174 -126 -153 -132 -89 -98 -129 -107 -62 -85 -166 -129 -100 -119 -145 -198 -122 -230 -186 139 718 773 -1 -413 -265 -160 -183 -151 -167 -124 -148 -110 -49 -71 18 50 91 171 285 267 252 251 190 96 37 6 -49 -59 -102 -99 -121 -145 -161 -223 -183 -213 -211 -242 -269 -212 -284 -254 -236 -185 -198 -228 -162 -208 -247 -257 -322 -287 -297 -328 -325 -378 -432 -355 -51 558 466 -219 -636 -505 -404 -423 -301 -308 -278 -274 -287 -230 -242 -196 -157 -27 -7 33 69 40 21 -29 -177 -255 -238 -339 -342 -274 -365 -327 -278 -322 -361 -326 -270 -285 -239 -223 -311 -293 -455 -546 -490 -583 -460 -550 -528 -383 46 608 -188 -797 -678 -557 -474 -512 -467 -387 -339 -368 -323 -311 -327 -148 -91 -25 63 93 96 62 -3 -157 -217 -260 -298 -267 -285 -280 -219 -260 -298 -179 -161 -174 -129 -84 -178 -203 -249 -333 -375 -359 -310 -418 -447 -347 123 847 271 -515 -520 -473 -376 -315 -326 -320 -273 -220 -206 -189 -157 -86 8 71 161 230 177 169 108 0 -57 -85 -100 -153 -165 -107 -90 -75 -102 -39 -40 -45 33 9 -14 -32 -177 -206 -234 -206 -234 -258 -281 -307 -225 298 1068 556 -241 -344 -272 -207 -237 -213 -219 -128 -98 -139 -117 -51 17 94 200 283 260 244 229 164 108 35 4 21 12 28 38 21 3 26 -17 -52 -49 -63 -39 -66 -64 -33 -79 -47 -109 -42 -19 -28 -36 -54 -7 -43 -55 -56 -36 0 -50 -46 -25 -4 -7 -35 -10 2 13 -35 0 62 -7 -10 -6 -21 4 2 3 -25 0 -8 -5 -4 -1 6 -11 15 59 81 70 131 116 0 12 -13 -10 -50 -42 -103 -94 -62 350 861 306 -131 -99 -82 -78 -122 -80 -47 -72 -47 -17 20 39 79 82 183 233 276 286 250 289 267 179 151 128 130 115 101 56 84 21 48 26 4 11 1 -57 0 -31 -35 -11 -19 -76 -61 -36 -33 -60 -39 -77 -34 -61 -43 -30 -47 -48 -4 -42 -61 -77 -31 -51 -47 -97 -62 -126 -144 -88 362 1004 528 -141 -242 -228 -80 -120 -55 -71 -40 -62 -1 19 22 33 135 132 229 315 346 327 294 239 115 76 61 28 54 -31 23 -12 -9 -60 -72 -74 -79 -91 -124 -89 -125 -144 -127 -106 -140 -139 -112 -111 -100 -128 -69 -49 -61 -81 -142 -124 -143 -160 -153 -139 -171 -134 193 794 682 -85 -368 -331 -149 -143 -101 -155 -148 -113 -76 -70 11 -10 67 123 238 315 316 321 282 220 181 69 65 11 52 44 49 7 5 -13 -5 -84 -63 -90 -42 -65 -99 -87 -61 -68 -48 -39 -7 -62 -7 41 -54 -51 -10 -102 -52 -105 -51 -111 -122 -45 356 1072 656 -180 -255 -220 -48 -107 -64 -6 0 -19 28 52 110 81 221 255 349 416 447 430 409 323 240 121 119 83 132 96 82 75 50 43 79 44 29 -19 28 -7 64 56 93 184 198 166 120 71 41 -40 -21 -42 18 -109 -56 27 441 1207 504 -214 -186 -121 9 -53 -13 14 47 79 73 96 177 171 281 295 398 492 432 469 399 384 307 136 188 128 153 132 152 127 150 111 89 87 61 65 64 5 30 36 86 79 163 170 223 229 197 139 97 13 34 12 14 -27 12 -97 327 658 447 430 9 -191 58 -38 17 38 53 49 105 89 218 208 300 307 382 464 447 507 435 463 385 288 309 243 268 234 234 222 222 179 155 166 139 101 126 116 117 86 128 96 111 121 121 102 124 111 133 85 102 108 132 142 136 134 145 129 163 135 160 127 158 159 147 142 165 155 185 194 150 169 205 196 197 146 210 219 210 185 231 196 226 212 297 337 340 390 346 364 317 276 279 265 265 189 340 142 459 578 439 957 428 14 226 168 207 162 196 201 225 250 278 275 329 348 425 478 489 598 495 585 497 490 452 405 396 382 349 333 317 288 281 270 241 251 247 266 230 186 221 216 246 211 220 201 214 188 203 202 203 189 202 192 212 177 186 210 215 173 202 189 194 221 236 269 206 213 251 235 202 240 215 182 196 125 248 56 352 481 441 934 314 -79 129 98 138 150 128 145 176 142 243 208 292 286 368 405 445 529 465 549 461 424 401 348 332 254 267 241 237 184 185 178 213 154 154 120 108 99 137 103 87 105 127 82 100 56 89 146 138 79 137 119 118 105 106 61 66 57 115 -3 121 68 433 1099 451 -10 -96 -146 80 5 86 34 52 63 60 100 116 153 281 227 354 399 424 440 381 352 263 250 216 130 134 85 62 33 43 7 10 -33 10 -51 -65 -87 -28 -27 26 22 59 80 128 114 78 71 87 -31 -17 -84 -47 -164 -86 -86 368 1039 440 -203 -363 -328 -131 -202 -138 -165 -150 -145 -108 -107 -55 -25 33 54 193 252 284 274 244 160 67 4 -43 -54 -91 -113 
