ADC Sampling rate (Hz):
100
Fragment duration (sec):
20
Number of samples exported by each lead:
1999

#I[uV]
781 706 627 1129 460 990 274 187 102 701 -79 -41 -54 -32 -73 -42 -72 -43 -67 -58 -56 -59 -66 -63 -81 -95 -77 -64 -65 -61 -53 -68 -45 -69 -29 -58 -63 -138 -71 -137 -123 -155 -115 20 347 278 -203 -274 -105 -143 -26 -113 -36 -79 -80 -67 -85 -52 -69 -55 -47 -45 -36 -18 1 19 23 83 35 49 33 -26 -18 -69 -45 -71 -46 -84 -61 -75 -58 -82 -69 -52 -64 -59 -142 -48 -58 -60 -50 -64 -16 -51 -53 -42 -140 -51 -171 -58 -32 -42 -154 -59 -90 -64 -30 -38 -79 -34 -38 -42 -36 -32 -84 -39 6 -20 -64 -25 8 -18 -68 -14 -9 -23 -39 -7 -64 -16 -15 7 2 16 11 -3 -69 -61 -60 -89 -64 -61 122 521 169 -391 -229 -281 -156 -151 -144 -160 -134 -160 -128 -132 -139 -140 -117 -135 -120 -89 -60 -88 -85 -15 -54 -17 -29 -18 -57 -61 -75 -135 -109 -160 -133 -142 -133 -90 -113 -113 -114 -99 -112 -110 -108 -114 -119 -104 -112 -111 -110 -117 -133 -108 -103 -121 -104 -122 -126 -106 -114 -112 -116 -138 -111 -116 -112 -97 -108 -111 -102 -108 -108 -97 -97 -99 -99 -101 -100 -111 -99 -114 -86 -73 -94 -77 -73 -40 -49 -31 -53 -63 -77 -98 -80 -137 -46 -134 -32 392 -7 -279 -133 -312 -196 -157 -166 -158 -159 -136 -129 -146 -140 -135 -128 -120 -109 -90 -84 -66 -59 -18 -35 11 -18 -7 -54 -77 -83 -121 -119 -180 -119 -150 -137 -149 -129 -116 -127 -76 -119 -89 -106 -124 -109 -119 -113 -135 -122 -123 -117 -124 -116 -134 -115 -118 -118 -132 -125 -111 -124 -119 -99 -112 -104 -84 -88 -98 -96 -99 -82 -82 -87 -74 -97 -62 -71 -87 -77 -30 -58 2 -45 -64 -69 -57 -86 -54 -31 -77 -26 184 -68 -11 -45 -261 -112 -149 -123 -137 -89 -142 -73 -115 -73 -100 -72 -31 -37 -85 -16 -64 4 44 23 90 28 72 8 7 -39 -168 -89 -145 -115 -213 -121 -516 -121 -165 -131 -93 -102 -196 -105 -83 -112 -162 -105 -129 -112 -68 -117 -107 -108 -48 -93 -119 -92 -82 -89 -73 -87 -59 -79 4 -65 -19 -71 5 -63 30 -49 27 -45 -89 -41 -87 -38 -91 -29 -34 0 77 19 -2 -33 -154 -77 -31 -105 -96 -94 -84 -74 -75 -73 -54 -56 -59 -46 -37 -18 -6 22 39 34 61 31 64 19 23 -15 -43 -45 -97 -69 -88 -99 -116 -89 -89 -91 -88 -76 -58 -83 -60 -84 -76 -86 -68 -78 -78 -81 -80 -78 -92 -75 -86 -92 -84 -86 -96 -93 -87 -86 -81 -88 -79 -86 -74 -81 -91 -77 -82 -75 -66 -72 -74 -62 -72 -50 -53 -39 -42 -43 -41 -47 -16 -32 -52 -25 -39 -3 4 -30 36 -57 -18 -62 -97 -119 -176 -131 -200 -156 -153 -169 -137 -140 -130 -130 -140 -114 -129 -96 -90 -80 -53 -66 -29 -47 -6 -54 -23 -74 -51 -88 -114 -114 -157 -131 -165 -135 -129 -139 -108 -131 -109 -115 -105 -108 -105 -108 -97 -110 -86 -105 -109 -107 -99 -118 -101 -108 -102 -106 -114 -106 -117 -108 -121 -111 -119 -120 -115 -113 -132 -109 -111 -106 -119 -125 -117 -112 -117 -115 -122 -109 -100 -93 -101 -87 -77 -74 -65 -74 -60 -80 -70 -68 -78 -58 -78 -44 -8 -53 21 -66 -73 -69 -157 -112 -161 -136 -163 -149 -136 -154 -125 -130 -133 -128 -126 -110 -114 -83 -97 -60 -48 -43 -17 -30 -2 -51 -23 -57 -48 -82 -108 -104 -139 -113 -145 -124 -131 -94 -118 -123 -97 -116 -105 -117 -124 -116 -104 -115 -92 -110 -110 -108 -107 -104 -97 -92 -91 -89 -59 -116 -75 -101 -74 -101 -64 -99 -66 -105 -69 -95 -77 -100 -37 -107 -45 -117 -71 -138 0 -113 -80 -96 -68 -74 -50 -68 -41 -74 -63 -73 -68 -80 -79 -71 -29 -69 7 -114 39 177 23 -165 -309 -170 -95 -159 -92 -134 -51 -118 -119 -118 -120 -107 -102 -93 -108 -96 4 -39 -48 -15 -74 0 130 -23 -52 -64 -93 -99 -155 -107 -193 -110 -235 -107 -176 -159 -192 -114 -221 -113 -113 -102 -149 -115 -110 -101 -171 -110 -190 -106 -148 -95 -113 -102 -89 -71 -100 -56 -84 -57 -61 -68 -49 -30 -161 -30 -153 -50 -110 -8 -29 -37 -55 -35 -32 0 -78 -2 -4 3 0 -18 -13 3 -7 -40 -67 -61 -70 -81 -105 -30 183 388 135 -318 -337 -179 -105 -121 -94 -110 -134 -75 -121 -106 -111 -96 -95 -30 -72 -58 -39 -10 4 42 30 48 47 23 -8 -101 -62 -113 -97 -96 -105 -99 -108 -105 -108 -89 -114 -77 -111 -90 -106 -88 -84 -91 -84 -71 -83 -98 -91 -122 -98 -57 -72 -95 -79 -83 -73 -89 -81 -102 -65 -94 -73 -93 -75 -95 -45 -77 -62 -60 -64 -36 -44 -12 -24 -11 -6 -64 -66 -82 -66 -101 -104 -65 86 280 198 -280 -452 -151 -126 -149 -82 -94 -93 -119 -106 -122 -104 -100 -119 -112 -88 -102 -38 -42 -44 14 12 88 49 16 3 -60 -68 -131 -188 -180 -117 -137 -155 -118 -124 -109 -159 -119 -123 -123 -207 -124 -156 -140 -174 -105 -118 -124 -118 -118 -152 -127 -130 -110 -114 -106 -82 -117 -97 -98 -89 -103 -166 -58 -56 -35 -28 -79 -117 -125 -122 -127 -129 -83 20 312 121 -310 -246 -264 -97 -134 -97 -73 -90 -118 -80 -103 -87 -100 -77 -89 -94 -75 -73 -49 -71 29 -45 63 9 34 -52 -86 -83 -152 -123 -158 -109 -124 -134 -138 -133 -129 -130 -116 -49 -121 -143 -134 -116 -98 -96 -117 -118 -116 -104 -107 -113 -94 -115 -102 -114 -112 -114 -87 -108 -129 -115 -101 -101 -125 -96 -101 -102 -71 -78 -51 -70 -58 -65 -74 -110 -126 -119 -162 -92 -125 -39 431 -56 -425 -150 -258 -194 -167 -171 -161 -167 -140 -143 -152 -162 -127 -138 -135 -131 -101 -105 -98 -79 -43 -53 6 -52 -25 -60 -116 -104 -174 -136 -180 -163 -185 -160 -141 -151 -149 -137 -105 -134 -119 -121 -119 -117 -114 -109 -124 -118 -108 -105 -109 -106 -104 -109 -121 -114 -119 -107 -99 -97 -119 -106 -95 -97 -96 -99 -75 -71 -60 -62 -61 -79 -60 -77 -59 -60 -63 -75 -68 -70 -51 -52 -56 -55 -44 -37 -20 -30 -20 -15 3 -26 -32 -32 -81 -33 -93 -28 -88 -20 372 -62 -315 -89 -234 -178 -227 -198 -222 -194 -158 -161 -162 -142 -149 -141 -156 -130 -152 -109 -136 -88 -81 -51 23 -37 -27 -63 -86 -54 -139 -119 -248 -128 -205 -143 -154 -143 -195 -143 -234 -137 -184 -126 -181 -124 -138 -131 -146 -142 -154 -137 -240 -131 -247 -128 -208 -125 -199 -136 -242 -119 -232 -123 -198 -132 -220 -120 -175 -100 -121 -121 -103 -127 -85 -125 -94 -118 -130 -116 -84 -108 -23 -103 -25 -100 -121 -96 -3 -44 19 -75 4 -75 8 -69 -80 -66 3 -70 -101 -82 -24 -56 -16 -22 78 47 68 -23 -88 -99 -58 -109 -113 -108 -90 -84 -49 -65 -79 -45 -59 -25 -21 3 -8 16 43 30 58 44 66 13 33 -15 -42 -50 -68 -80 -106 -99 -114 -100 -88 -83 -84 -70 -77 -75 -69 -82 -57 -72 -83 -67 -70 -80 -69 -75 -65 -76 -79 -75 -76 -78 -73 -81 -90 -78 -66 -74 -71 -73 -83 -67 -75 -69 -80 -78 -68 -68 -68 -75 -70 -72 -71 -66 -57 -45 -29 -49 -49 -42 -37 -42 -53 -25 -58 -25 5 -24 40 -58 -33 -51 -89 -105 -191 -116 -182 -144 -130 -139 -110 -116 -104 -97 -103 -78 -82 -60 -62 -23 -29 0 33 1 60 -6 28 -30 -22 -56 -96 -91 -127 -104 -119 -108 -102 -116 -92 -102 -90 -110 -93 -107 -93 -99 -98 -111 -107 -106 -100 -112 -102 -104 -104 -106 -104 -101 -97 -98 -97 -99 -93 -96 -80 -87 -79 -72 -65 -78 -63 -76 -91 -82 -112 -62 -102 -73 -26 -64 15 -42 -25 -97 -155 -126 -175 -131 -147 -120 -117 -109 -101 -100 -105 -90 -100 -73 -83 -44 -43 -7 -18 10 39 2 54 -12 5 -43 -43 -61 -90 -90 -115 -105 -131 -121 -123 -121 -106 -106 -91 -110 -106 -118 -95 -115 -112 -111 -106 -110 -107 -116 -116 -113 -110 -114 -114 -121 -89 -109 -105 -116 -112 -96 -82 -90 -71 -83 -51 -85 -83 -86 -103 -70 -102 -89 -35 -95 17 -8 11 -116 -334 -156 -92 -152 -122 -147 -59 -119 -160 -118 -80 -112 -81 -102 -80 -85 -147 -55 -39 -20 96 -14 62 -50 -11 -81 15 -120 -79 -128 -195 -129 -128 -139 -203 -144 -176 -134 -185 -132 -236 -120 -225 -123 -149 -135 -143 -133 -136 -134 -174 -142 -160 -129 -135 -126 -187 -130 -171 -121 -188 -111 -151 -115 -169 -112 -164 -106 -98 -108 -150 -92 -110 -93 -202 -96 -89 -91 -165 -92 -199 -83 -61 -69 -142 -65 -57 -66 -173 -62 -103 -63 -73 -44 30 56 390 -159 -520 -175 -180 -185 -114 -154 -142 -142 -139 -139 -147 -137 -116 -119 -104 -104 -120 -76 -78 -46 -27 -23 -8 -12 -5 -41 -46 -102 -97 -89 -111 -99 -112 -84 -83 -98 -84 -89 -89 -68 -87 -70 -64 -73 -90 -59 -98 -70 -64 -54 -68 -47 -84 -72 -83 -78 -83 -60 -72 -30 -85 -46 -63 -60 -42 -16 -67 -46 -51 -18 -50 -5 -53 -50 -34 -69 -65 -51 -32 -27 -44 -40 -43 -9 -27 -11 -15 14 -19 -19 0 -3 -5 -51 -20 -53 -55 -77 -57 -17 234 425 71 -269 -281 -168 -104 -63 -74 -65 -117 -75 -111 -50 -106 -65 -89 -22 -85 -18 -71 -66 -7 6 17 -3 -6 -19 13 -65 -69 -111 -107 -126 -141 -60 -140 -90 -83 -113 -101 -131 -65 -125 -147 -104 -59 -104 -165 -117 -137 -106 -63 -76 -100 -103 -53 -117 -54 -98 -155 -80 -76 -70 -130 -82 -110 -87 -44 -87 -51 -77 -52 -72 -98 -81 -66 -69 -17 -54 -52 -4 13 -13 -69 -2 12 -50 -7 -84 -72 -90 -65 25 151 366 -47 -439 -75 -137 -71 -105 -180 -93 62 -78 -70 -65 -72 -63 -43 -23 -42 -55 -21 6 -74 52 -54 57 87 32 60 -59 -44 -115 -8 -119 -36 -97 -81 -72 -74 -75 -88 -64 -99 -64 -85 -74 -91 -59 -48 -92 -74 -60 -74 -88 -73 -55 -73 -75 -64 -65 -59 -103 -68 -42 -60 -57 -31 -77 -15 -49 -62 -31 -48 -21 -39 -21 -26 9 -3 -30 -37 -87 -31 -89 -22 -46 47 409 -29 -368 -81 -235 -145 -106 -124 -101 -106 -118 -113 -116 -121 -84 -101 -104 -84 -100 -90 -67 -62 -32 -8 30 -17 12 -31 -58 -63 -152 -99 -154 -118 -123 -134 -122 -122 -105 -129 -99 -97 -93 -112 -111 -98 -89 -110 -107 -102 -113 -110 -115 -102 -103 -93 -109 -90 -101 -99 -102 -102 -89 -98 -98 -107 -90 -100 -92 -90 -96 -99 -103 -95 -93 -100 -107 -92 -105 -93 -74 -84 -92 -84 -78 -72 -72 -72 -69 -64 -42 -72 -113 -93 
#II[uV]
-129844 -118320 -103975 -92168 -78121 -66430 -52265 -40772 -26413 -14585 -563 -560 -555 -557 -551 -554 -560 -555 -538 -577 -540 -539 -529 -528 -543 -582 -527 -538 -516 -509 -541 -549 -516 -517 -513 -516 -496 -579 -521 -575 -562 -669 -678 -393 163 175 -602 -778 -559 -666 -525 -552 -438 -501 -480 -491 -570 -470 -476 -544 -456 -451 -458 -440 -416 -361 -355 -273 -350 -295 -331 -486 -405 -498 -535 -496 -573 -515 -513 -586 -506 -477 -542 -485 -504 -495 -618 -475 -517 -514 -538 -500 -500 -489 -610 -586 -589 -484 -645 -491 -595 -568 -615 -473 -654 -566 -515 -481 -684 -470 -574 -482 -593 -557 -594 -473 -492 -451 -593 -575 -570 -450 -595 -489 -543 -472 -566 -436 -582 -448 -526 -519 -574 -409 -480 -415 -564 -557 -572 -496 -508 -585 -368 427 -250 -904 -701 -834 -686 -663 -635 -661 -649 -664 -651 -712 -634 -625 -619 -609 -623 -684 -603 -556 -544 -492 -515 -454 -486 -440 -520 -576 -547 -645 -591 -659 -616 -647 -617 -693 -630 -585 -603 -591 -592 -619 -595 -600 -600 -708 -598 -604 -596 -599 -605 -587 -609 -681 -585 -587 -591 -605 -588 -610 -586 -604 -603 -557 -588 -638 -575 -591 -573 -587 -566 -566 -558 -573 -559 -542 -560 -653 -549 -540 -525 -532 -537 -527 -532 -493 -503 -473 -478 -536 -499 -523 -521 -580 -501 -664 -435 174 -373 -686 -539 -835 -660 -663 -667 -593 -621 -650 -590 -604 -595 -585 -582 -568 -560 -610 -550 -489 -497 -472 -450 -352 -428 -371 -468 -533 -512 -568 -551 -626 -572 -590 -598 -623 -578 -548 -554 -523 -555 -526 -556 -560 -549 -548 -555 -546 -547 -561 -551 -541 -548 -515 -551 -527 -535 -568 -546 -527 -538 -543 -535 -541 -546 -499 -534 -481 -517 -511 -505 -500 -508 -482 -514 -482 -492 -492 -501 -460 -488 -444 -470 -458 -483 -466 -517 -461 -444 -558 -375 -42 -388 -159 -381 -690 -512 -521 -547 -539 -544 -496 -511 -475 -496 -466 -485 -444 -445 -433 -427 -376 -400 -250 -366 -175 -350 -254 -372 -298 -420 -467 -487 -505 -529 -547 -537 -858 -530 -461 -538 -436 -528 -461 -538 -441 -542 -471 -536 -383 -545 -450 -556 -474 -575 -389 -573 -417 -504 -438 -497 -448 -500 -425 -498 -393 -484 -410 -477 -374 -466 -357 -466 -362 -453 -454 -456 -511 -409 -479 -371 -447 -306 -258 -319 -197 -365 -506 -434 -429 -513 -551 -531 -527 -511 -548 -481 -499 -486 -507 -472 -485 -438 -428 -401 -375 -367 -321 -365 -310 -373 -361 -415 -443 -463 -529 -502 -537 -536 -553 -538 -534 -532 -508 -514 -493 -515 -508 -519 -523 -518 -506 -517 -511 -521 -510 -525 -524 -506 -517 -521 -527 -512 -517 -517 -524 -511 -513 -501 -511 -505 -500 -508 -511 -498 -503 -484 -498 -481 -487 -482 -482 -470 -475 -469 -478 -467 -464 -464 -465 -455 -490 -443 -470 -403 -401 -412 -312 -465 -403 -471 -460 -562 -632 -584 -705 -646 -681 -672 -650 -645 -625 -622 -617 -603 -605 -584 -559 -560 -516 -534 -476 -512 -428 -512 -442 -531 -485 -553 -582 -593 -642 -613 -648 -640 -613 -639 -585 -607 -582 -597 -575 -584 -579 -587 -577 -585 -576 -583 -585 -585 -580 -593 -574 -586 -569 -590 -571 -590 -584 -581 -583 -582 -590 -583 -587 -574 -589 -570 -571 -568 -572 -578 -574 -569 -566 -565 -536 -574 -530 -549 -531 -548 -532 -527 -508 -533 -502 -530 -507 -513 -511 -505 -500 -478 -404 -467 -294 -528 -472 -513 -542 -577 -625 -624 -660 -640 -627 -653 -613 -637 -604 -635 -596 -620 -572 -585 -547 -566 -510 -520 -458 -498 -415 -512 -431 -528 -484 -564 -579 -600 -610 -619 -605 -623 -572 -591 -593 -592 -577 -583 -588 -586 -605 -587 -583 -585 -561 -575 -572 -568 -571 -566 -569 -553 -569 -546 -559 -550 -553 -542 -550 -544 -537 -534 -514 -533 -516 -530 -518 -526 -473 -527 -485 -520 -515 -535 -438 -533 -505 -514 -515 -508 -503 -500 -481 -503 -457 -503 -450 -493 -483 -488 -440 -482 -406 -492 -301 -12 -296 -578 -651 -628 -450 -627 -428 -594 -487 -558 -514 -559 -553 -554 -511 -539 -506 -542 -368 -491 -410 -431 -300 -394 -231 -433 -384 -494 -350 -545 -513 -571 -563 -575 -544 -566 -524 -610 -522 -588 -550 -570 -469 -557 -524 -561 -513 -556 -472 -552 -513 -557 -508 -546 -497 -538 -460 -513 -518 -486 -499 -459 -381 -444 -453 -443 -424 -438 -473 -446 -416 -439 -428 -440 -384 -439 -462 -453 -431 -435 -393 -432 -459 -429 -394 -430 -456 -462 -446 -502 -413 -542 -536 -533 -133 438 -130 -729 -782 -700 -499 -624 -480 -548 -546 -520 -541 -521 -539 -525 -520 -520 -493 -470 -446 -434 -389 -345 -335 -311 -313 -351 -372 -512 -516 -571 -518 -538 -515 -534 -517 -529 -517 -534 -566 -538 -527 -524 -520 -524 -511 -541 -537 -521 -512 -523 -507 -541 -504 -522 -494 -510 -479 -499 -532 -518 -480 -511 -482 -500 -476 -528 -479 -492 -457 -462 -486 -453 -440 -494 -468 -428 -441 -413 -415 -448 -456 -494 -427 -536 -542 -559 -417 124 142 -555 -911 -769 -688 -628 -542 -610 -574 -583 -549 -607 -645 -603 -596 -607 -561 -605 -595 -539 -519 -488 -515 -368 -394 -443 -400 -483 -491 -569 -678 -615 -536 -561 -570 -528 -554 -552 -568 -514 -611 -575 -595 -496 -567 -573 -573 -500 -541 -507 -515 -505 -554 -512 -579 -544 -523 -492 -496 -505 -483 -468 -453 -564 -690 -435 -497 -442 -427 -462 -583 -493 -546 -496 -629 -681 -430 304 55 -613 -840 -896 -719 -654 -639 -607 -596 -604 -647 -591 -632 -570 -590 -668 -616 -539 -570 -521 -610 -440 -587 -369 -507 -385 -519 -534 -542 -651 -603 -654 -635 -629 -636 -611 -602 -607 -597 -630 -594 -590 -619 -613 -589 -655 -604 -572 -573 -582 -577 -583 -566 -598 -564 -599 -571 -577 -560 -581 -570 -546 -554 -555 -540 -556 -517 -592 -514 -507 -514 -490 -498 -484 -477 -491 -503 -627 -517 -585 -497 -643 -385 446 -392 -923 -549 -790 -641 -680 -625 -621 -624 -614 -626 -619 -600 -597 -567 -576 -555 -545 -521 -526 -473 -479 -462 -359 -408 -374 -434 -505 -496 -597 -562 -696 -591 -627 -582 -592 -580 -573 -556 -550 -546 -554 -563 -612 -566 -540 -538 -569 -540 -562 -527 -550 -517 -523 -528 -564 -531 -528 -537 -513 -521 -554 -513 -509 -501 -507 -518 -481 -515 -505 -491 -451 -472 -462 -456 -504 -460 -454 -470 -454 -455 -440 -437 -437 -431 -433 -421 -420 -418 -407 -403 -403 -396 -405 -411 -438 -423 -471 -396 -523 -349 283 -403 -718 -441 -666 -585 -623 -623 -668 -612 -568 -572 -534 -548 -530 -533 -523 -511 -493 -478 -426 -431 -410 -390 -251 -385 -306 -417 -346 -429 -498 -483 -599 -516 -557 -537 -527 -530 -496 -516 -519 -521 -499 -509 -510 -507 -510 -509 -539 -518 -491 -526 -515 -526 -512 -533 -501 -526 -502 -525 -489 -514 -508 -524 -480 -541 -500 -541 -462 -522 -402 -502 -429 -505 -410 -510 -440 -514 -454 -512 -409 -498 -395 -495 -391 -495 -399 -504 -368 -466 -326 -455 -348 -449 -313 -442 -431 -448 -374 -453 -452 -445 -394 -395 -374 -308 -205 -260 -180 -289 -382 -404 -383 -459 -475 -471 -465 -449 -430 -424 -456 -400 -436 -379 -398 -344 -361 -304 -306 -291 -258 -284 -254 -319 -297 -357 -400 -421 -466 -467 -513 -492 -516 -501 -507 -492 -485 -481 -488 -493 -480 -490 -481 -495 -503 -488 -496 -500 -498 -503 -487 -503 -506 -498 -497 -499 -490 -504 -497 -489 -501 -498 -498 -490 -506 -489 -501 -490 -496 -492 -498 -490 -501 -493 -502 -487 -495 -484 -491 -482 -457 -476 -476 -471 -476 -473 -488 -452 -493 -426 -406 -422 -313 -473 -414 -474 -454 -555 -639 -573 -701 -632 -659 -647 -615 -629 -612 -604 -618 -593 -607 -568 -589 -531 -533 -496 -455 -485 -419 -520 -406 -535 -482 -556 -588 -589 -635 -612 -630 -624 -612 -625 -599 -620 -594 -623 -586 -631 -585 -624 -582 -624 -583 -608 -586 -610 -593 -604 -605 -599 -593 -599 -594 -596 -583 -597 -568 -593 -544 -542 -565 -536 -555 -555 -553 -554 -577 -553 -608 -519 -600 -480 -452 -452 -345 -415 -437 -488 -570 -568 -654 -634 -677 -639 -647 -631 -629 -616 -617 -590 -615 -568 -594 -526 -544 -484 -481 -445 -419 -457 -387 -462 -438 -494 -504 -529 -577 -561 -601 -575 -600 -582 -585 -587 -570 -581 -562 -576 -569 -567 -577 -567 -583 -565 -569 -567 -562 -564 -574 -563 -580 -562 -580 -563 -546 -554 -562 -546 -560 -522 -539 -510 -536 -517 -495 -514 -526 -514 -549 -493 -528 -490 -448 -472 -347 -309 -339 -545 -845 -684 -577 -727 -633 -695 -591 -655 -621 -648 -599 -636 -598 -623 -500 -591 -571 -552 -498 -499 -349 -524 -335 -549 -339 -570 -457 -608 -577 -627 -551 -633 -536 -635 -548 -633 -515 -621 -575 -618 -582 -599 -569 -601 -587 -604 -507 -599 -524 -605 -574 -603 -542 -599 -529 -591 -537 -583 -575 -577 -560 -570 -490 -574 -536 -561 -488 -555 -511 -542 -466 -538 -518 -537 -515 -538 -479 -531 -521 -516 -492 -519 -476 -509 -488 -495 -449 -500 -503 -494 -472 -498 -462 -473 -427 -279 247 -586 -925 -651 -687 -683 -568 -643 -619 -620 -607 -607 -596 -613 -648 -586 -555 -561 -559 -527 -523 -491 -446 -447 -474 -439 -408 -483 -465 -543 -546 -571 -580 -569 -600 -569 -528 -551 -534 -541 -585 -540 -554 -532 -524 -523 -550 -519 -560 -532 -531 -534 -536 -536 -539 -531 -528 -536 -600 -524 -526 -519 -521 -525 -548 -535 -498 -530 -522 -519 -495 -504 -481 -507 -568 -507 -468 -538 -504 -516 -484 -499 -484 -496 -514 -522 -469 -498 -453 -487 -539 -499 -439 -505 -451 -518 -466 -540 -486 -619 -594 -626 -118 472 -314 -842 -789 -737 -557 -657 -624 -588 -574 -562 -600 -601 -604 -570 -575 -583 -545 -539 -617 -530 -448 -470 -412 -431 -416 -438 -503 -603 -519 -585 -600 -597 -601 -628 -738 -573 -550 -586 -615 -605 -561 -605 -619 -610 -655 -599 -639 -594 -602 -606 -566 -573 -585 -589 -556 -603 -568 -575 -648 -571 -603 -555 -617 -561 -684 -589 -589 -569 -609 -544 -618 -556 -568 -555 -635 -529 -573 -507 -660 -505 -571 -558 -654 -464 -568 -501 -523 -546 -620 -652 -700 -575 -175 563 -513 -1023 -694 -717 -614 -597 -622 -623 -577 -542 -612 -551 -586 -534 -568 -543 -537 -527 -508 -470 -555 -403 -538 -369 -473 -452 -478 -540 -495 -605 -531 -596 -583 -659 -580 -600 -564 -604 -581 -532 -556 -559 -556 -555 -564 -542 -540 -587 -535 -557 -533 -571 -539 -550 -537 -564 -524 -545 -563 -568 -530 -530 -525 -509 -512 -488 -499 -609 -536 -483 -488 -514 -497 -506 -513 -487 -453 -491 -477 -556 -491 -585 -516 -664 -388 251 -409 -835 -567 -949 -689 -715 -697 -699 -675 -699 -650 -670 -656 -658 -638 -675 -615 -659 -607 -614 -579 -606 -523 -469 -501 -460 -521 -548 -576 -707 -627 -747 -660 -675 -666 -659 -651 -623 -662 -693 -650 -666 -650 -649 -635 -643 -632 -642 -630 -636 -637 -640 -635 -684 -625 -621 -630 -653 -635 -613 -621 -618 -618 -623 -631 -625 -628 -645 -623 -651 -634 -644 -619 -624 -637 -691 -632 -628 -623 -613 -610 -604 -604 -584 -596 -598 -593 -603 -583 -592 -578 -602 -609 
#III[uV]
-130626 -119026 -104602 -93298 -78581 -67421 -52540 -40960 -26515 -15286 -484 -519 -501 -525 -478 -511 -488 -512 -471 -518 -484 -479 -462 -464 -462 -486 -450 -473 -450 -447 -488 -481 -470 -448 -484 -458 -432 -441 -450 -438 -439 -513 -562 -414 -183 -102 -398 -504 -453 -523 -498 -439 -401 -421 -400 -423 -484 -418 -407 -488 -408 -406 -421 -422 -417 -381 -379 -357 -385 -345 -364 -460 -386 -429 -489 -425 -526 -431 -452 -510 -447 -395 -472 -433 -440 -435 -475 -426 -458 -454 -488 -436 -483 -437 -556 -544 -449 -433 -474 -433 -563 -526 -460 -413 -564 -502 -484 -443 -605 -435 -536 -440 -557 -525 -510 -434 -498 -430 -529 -549 -578 -432 -526 -474 -533 -448 -526 -428 -517 -432 -511 -526 -577 -425 -492 -412 -495 -495 -512 -407 -443 -523 -490 -93 -419 -513 -471 -553 -529 -512 -490 -501 -515 -504 -522 -579 -494 -484 -501 -474 -502 -594 -542 -467 -459 -476 -460 -436 -457 -422 -462 -514 -471 -510 -482 -498 -482 -505 -483 -603 -516 -472 -489 -491 -480 -508 -486 -486 -480 -603 -485 -492 -486 -481 -472 -478 -505 -560 -481 -464 -464 -499 -473 -497 -469 -465 -491 -440 -475 -541 -466 -479 -470 -479 -457 -468 -461 -473 -459 -441 -459 -541 -449 -426 -439 -458 -442 -449 -458 -452 -454 -442 -424 -473 -421 -424 -440 -442 -455 -530 -403 -217 -365 -407 -405 -523 -464 -506 -500 -434 -462 -513 -460 -457 -454 -450 -453 -447 -451 -519 -465 -423 -437 -454 -415 -363 -409 -364 -414 -456 -428 -447 -431 -446 -452 -439 -460 -473 -448 -431 -426 -446 -435 -436 -450 -436 -440 -429 -441 -411 -425 -437 -433 -416 -432 -381 -435 -408 -416 -435 -421 -416 -414 -423 -435 -428 -442 -415 -446 -383 -421 -411 -423 -418 -420 -407 -417 -420 -420 -405 -423 -429 -429 -447 -424 -393 -414 -409 -431 -407 -412 -481 -349 -226 -319 -148 -336 -428 -400 -372 -423 -401 -455 -354 -437 -360 -423 -366 -412 -413 -408 -348 -410 -312 -405 -295 -389 -266 -378 -326 -381 -306 -380 -298 -398 -360 -413 -334 -415 -342 -408 -296 -407 -343 -426 -264 -433 -357 -429 -308 -430 -253 -432 -382 -439 -367 -467 -340 -479 -298 -412 -355 -407 -374 -413 -366 -419 -398 -418 -391 -406 -379 -402 -387 -417 -389 -408 -365 -415 -423 -370 -387 -342 -413 -305 -336 -339 -194 -332 -351 -357 -398 -408 -454 -436 -443 -436 -473 -408 -444 -430 -448 -426 -448 -420 -422 -424 -414 -401 -383 -396 -375 -392 -384 -400 -399 -417 -432 -433 -449 -437 -437 -448 -445 -440 -420 -438 -435 -432 -448 -434 -447 -432 -437 -438 -433 -439 -429 -447 -431 -431 -430 -428 -443 -425 -420 -424 -437 -425 -431 -413 -431 -419 -426 -426 -420 -420 -421 -409 -431 -409 -413 -420 -409 -419 -421 -429 -436 -424 -422 -416 -448 -423 -438 -418 -431 -399 -406 -382 -348 -407 -384 -408 -362 -443 -456 -453 -504 -489 -528 -502 -512 -504 -494 -491 -477 -489 -475 -487 -469 -480 -462 -467 -447 -464 -422 -458 -418 -457 -433 -464 -467 -479 -484 -481 -482 -504 -483 -499 -477 -476 -473 -481 -469 -476 -474 -479 -480 -475 -490 -478 -475 -477 -480 -475 -472 -478 -466 -484 -457 -484 -467 -473 -462 -470 -470 -463 -472 -460 -456 -460 -459 -461 -452 -453 -456 -457 -449 -449 -413 -465 -429 -455 -430 -461 -455 -453 -442 -458 -441 -449 -437 -444 -433 -447 -422 -434 -395 -414 -315 -461 -399 -444 -385 -464 -464 -488 -496 -491 -491 -498 -488 -506 -470 -507 -470 -510 -457 -501 -449 -505 -462 -477 -441 -467 -413 -460 -408 -471 -435 -481 -471 -495 -470 -506 -459 -499 -440 -497 -474 -469 -479 -466 -483 -468 -480 -470 -478 -469 -468 -465 -462 -460 -464 -462 -472 -461 -478 -456 -499 -434 -477 -441 -475 -442 -473 -434 -447 -427 -447 -434 -441 -425 -436 -420 -439 -403 -443 -396 -438 -419 -424 -417 -446 -433 -453 -432 -439 -428 -394 -430 -382 -413 -403 -416 -410 -412 -413 -377 -340 -189 -319 -412 -342 -458 -354 -467 -336 -460 -435 -440 -394 -440 -433 -447 -408 -446 -398 -446 -372 -452 -361 -415 -226 -394 -362 -409 -332 -430 -257 -446 -358 -464 -369 -464 -309 -459 -347 -450 -329 -473 -328 -456 -355 -455 -374 -445 -403 -455 -301 -441 -322 -451 -360 -451 -384 -435 -371 -441 -417 -429 -414 -402 -320 -376 -404 -412 -263 -407 -320 -395 -306 -431 -398 -402 -329 -404 -429 -454 -352 -433 -388 -436 -459 -410 -380 -434 -448 -422 -378 -440 -342 -460 -431 -502 -316 49 -265 -410 -445 -520 -394 -503 -385 -437 -411 -444 -420 -415 -428 -428 -425 -489 -421 -412 -406 -423 -394 -388 -365 -359 -360 -375 -363 -411 -453 -458 -420 -441 -409 -435 -408 -424 -408 -445 -452 -460 -415 -433 -414 -435 -426 -449 -453 -449 -428 -425 -416 -419 -406 -464 -421 -415 -399 -415 -459 -428 -398 -408 -416 -406 -403 -435 -403 -397 -411 -385 -424 -392 -376 -457 -424 -415 -416 -401 -409 -384 -390 -412 -360 -434 -438 -494 -503 -155 -55 -275 -458 -618 -561 -478 -460 -515 -480 -463 -443 -484 -541 -502 -477 -495 -473 -503 -556 -496 -474 -502 -527 -456 -443 -460 -403 -422 -423 -437 -490 -434 -418 -424 -415 -409 -430 -442 -408 -395 -488 -452 -388 -372 -410 -432 -399 -395 -422 -382 -396 -386 -402 -384 -448 -434 -409 -386 -414 -388 -385 -369 -364 -461 -524 -376 -441 -406 -399 -383 -465 -368 -423 -369 -499 -598 -450 -7 -66 -302 -594 -632 -622 -519 -541 -533 -506 -486 -566 -488 -544 -469 -512 -579 -521 -464 -496 -472 -539 -469 -542 -432 -517 -420 -467 -448 -459 -498 -480 -495 -526 -505 -501 -472 -469 -478 -467 -513 -544 -469 -475 -479 -473 -556 -507 -455 -455 -465 -473 -476 -453 -503 -448 -496 -457 -464 -445 -493 -461 -417 -438 -453 -439 -431 -420 -490 -412 -435 -436 -438 -427 -426 -412 -416 -393 -500 -397 -422 -405 -517 -345 14 -335 -497 -398 -532 -447 -512 -454 -459 -457 -474 -482 -467 -437 -469 -428 -441 -423 -444 -415 -428 -393 -436 -408 -365 -356 -349 -373 -389 -391 -423 -425 -516 -428 -442 -421 -451 -429 -424 -418 -444 -411 -435 -442 -493 -448 -425 -428 -445 -422 -453 -421 -440 -411 -418 -419 -442 -416 -408 -430 -413 -423 -434 -406 -414 -403 -411 -418 -405 -444 -444 -429 -390 -392 -401 -378 -445 -399 -390 -395 -385 -385 -389 -384 -381 -375 -389 -383 -400 -388 -386 -387 -407 -370 -373 -378 -356 -389 -378 -367 -434 -328 -88 -340 -403 -351 -432 -406 -395 -424 -445 -417 -410 -410 -372 -405 -381 -391 -366 -381 -341 -368 -290 -343 -328 -338 -275 -348 -278 -353 -260 -374 -358 -363 -350 -387 -352 -394 -373 -387 -301 -372 -285 -384 -315 -382 -328 -383 -371 -377 -392 -375 -337 -389 -274 -395 -264 -405 -293 -400 -302 -389 -247 -394 -275 -400 -281 -409 -279 -420 -287 -422 -280 -381 -326 -377 -324 -384 -345 -395 -323 -395 -325 -389 -372 -391 -366 -394 -278 -407 -364 -421 -346 -380 -353 -374 -321 -372 -350 -382 -378 -383 -350 -363 -370 -339 -358 -286 -283 -307 -248 -266 -294 -304 -324 -349 -361 -363 -375 -365 -381 -358 -377 -354 -377 -353 -377 -348 -352 -321 -349 -321 -317 -329 -320 -333 -330 -341 -358 -371 -397 -387 -407 -392 -401 -400 -418 -408 -401 -411 -410 -417 -411 -408 -424 -422 -420 -421 -425 -419 -428 -427 -421 -427 -427 -422 -421 -420 -417 -423 -407 -411 -434 -423 -427 -416 -423 -422 -425 -421 -416 -413 -429 -422 -433 -418 -431 -415 -424 -418 -433 -437 -428 -427 -426 -428 -438 -430 -434 -427 -435 -400 -412 -398 -354 -414 -380 -422 -364 -450 -447 -457 -518 -487 -528 -507 -505 -513 -507 -506 -514 -514 -524 -507 -527 -508 -504 -497 -488 -486 -480 -514 -435 -505 -459 -500 -492 -498 -507 -507 -511 -516 -510 -509 -507 -518 -503 -512 -493 -523 -492 -525 -484 -512 -476 -501 -486 -498 -491 -500 -500 -493 -489 -497 -496 -498 -486 -497 -474 -497 -464 -455 -486 -463 -490 -476 -489 -478 -486 -471 -495 -457 -497 -407 -426 -388 -361 -372 -412 -390 -414 -441 -478 -503 -529 -519 -529 -522 -528 -515 -512 -499 -515 -494 -511 -481 -500 -476 -463 -456 -458 -460 -441 -449 -444 -450 -460 -467 -487 -470 -485 -470 -468 -461 -461 -465 -463 -474 -470 -466 -462 -448 -481 -452 -470 -453 -463 -457 -455 -448 -458 -450 -469 -447 -465 -441 -457 -444 -456 -430 -448 -425 -457 -420 -465 -434 -443 -429 -442 -427 -445 -422 -426 -400 -413 -377 -364 -300 -350 -428 -510 -528 -485 -575 -510 -547 -532 -536 -461 -530 -519 -524 -517 -521 -419 -506 -423 -496 -458 -478 -445 -510 -398 -499 -328 -489 -472 -487 -497 -499 -356 -503 -408 -496 -345 -489 -338 -486 -389 -486 -345 -478 -344 -478 -438 -468 -364 -465 -387 -471 -399 -461 -381 -470 -393 -464 -350 -453 -404 -456 -372 -458 -339 -459 -366 -448 -323 -449 -412 -434 -315 -445 -408 -444 -312 -441 -390 -440 -356 -424 -292 -435 -414 -439 -346 -430 -391 -434 -329 -431 -369 -435 -389 -429 -458 -335 -143 -426 -405 -475 -507 -498 -453 -488 -477 -478 -467 -468 -448 -476 -532 -466 -451 -456 -439 -451 -445 -445 -418 -424 -466 -426 -403 -441 -418 -441 -448 -482 -468 -470 -488 -484 -444 -453 -450 -451 -495 -472 -466 -461 -460 -450 -459 -459 -462 -461 -467 -479 -467 -488 -455 -458 -445 -458 -517 -464 -454 -489 -435 -478 -485 -475 -455 -513 -455 -472 -444 -486 -431 -501 -514 -456 -433 -469 -438 -465 -452 -472 -439 -456 -471 -513 -442 -486 -438 -502 -520 -480 -439 -502 -445 -467 -445 -487 -430 -542 -536 -608 -352 46 -385 -573 -508 -568 -453 -593 -549 -523 -456 -486 -489 -551 -497 -505 -485 -561 -460 -521 -546 -463 -440 -477 -429 -428 -410 -419 -517 -537 -449 -474 -493 -471 -460 -567 -597 -483 -466 -472 -513 -474 -496 -479 -472 -505 -595 -494 -473 -476 -465 -500 -503 -496 -485 -485 -502 -486 -514 -476 -493 -491 -527 -484 -487 -479 -573 -501 -545 -481 -557 -467 -565 -484 -469 -473 -568 -460 -555 -452 -608 -501 -585 -544 -584 -461 -580 -450 -516 -461 -547 -562 -634 -600 -327 197 -465 -583 -618 -579 -542 -492 -441 -530 -639 -464 -542 -486 -513 -470 -525 -519 -495 -471 -486 -476 -481 -456 -483 -427 -560 -485 -539 -480 -450 -490 -522 -477 -546 -562 -498 -527 -490 -529 -493 -467 -457 -494 -470 -480 -472 -482 -492 -495 -460 -497 -459 -482 -465 -495 -464 -489 -460 -480 -504 -465 -461 -488 -465 -451 -480 -411 -483 -560 -473 -451 -440 -493 -457 -484 -487 -496 -450 -461 -440 -468 -460 -496 -494 -618 -435 -158 -380 -466 -485 -713 -543 -608 -573 -597 -568 -580 -536 -553 -535 -573 -537 -570 -531 -558 -517 -547 -516 -574 -514 -499 -484 -473 -490 -489 -512 -554 -527 -593 -541 -552 -531 -536 -528 -517 -533 -593 -552 -572 -538 -538 -536 -554 -522 -534 -527 -523 -526 -525 -533 -581 -531 -511 -539 -552 -535 -511 -519 -528 -519 -524 -524 -535 -527 -553 -533 -554 -534 -540 -523 -531 -537 -584 -540 -523 -529 -538 -526 -512 -519 -505 -523 -526 -521 -533 -519 -549 -506 -488 -515 
#avR[uV]
64531 58807 51674 45519 38830 32719 25995 20292 13155 6941 321 300 305 295 312 298 316 299 303 317 298 299 297 295 312 338 302 301 291 285 297 309 280 293 271 287 279 359 296 356 342 412 396 186 -255 -226 403 526 332 405 276 333 237 290 280 279 327 261 273 300 251 248 247 229 207 171 166 95 157 122 149 256 212 283 290 283 309 299 287 330 282 280 306 268 284 277 380 261 287 287 294 282 258 270 331 314 365 267 408 274 314 305 384 266 372 315 273 260 381 252 306 262 315 295 339 256 243 236 329 300 281 234 331 252 276 247 303 222 323 232 271 256 285 196 234 209 317 309 316 293 286 323 122 -474 40 648 465 557 421 407 390 410 391 412 389 422 387 383 368 372 372 387 331 322 314 254 285 236 257 229 288 319 311 390 350 410 374 394 375 392 371 349 359 345 352 364 351 357 359 406 355 357 353 358 369 347 356 401 345 355 358 356 351 361 351 371 357 337 350 368 341 351 338 348 337 332 328 336 329 322 330 382 324 327 306 302 315 302 303 267 276 252 265 300 288 310 300 359 273 399 233 -283 190 482 336 573 428 410 416 376 390 393 359 375 368 360 355 344 334 350 317 277 278 245 242 170 223 189 261 305 298 345 335 403 345 370 367 386 354 332 341 300 337 307 331 342 329 334 334 340 335 342 334 332 332 325 333 323 326 350 336 319 331 331 317 327 325 291 311 289 306 305 293 291 297 278 305 272 281 289 289 245 273 221 257 261 276 261 302 257 238 317 201 -70 228 85 213 475 312 335 335 338 317 319 292 295 285 283 279 237 241 259 222 220 197 103 171 42 160 90 181 145 229 317 288 325 322 380 329 687 326 313 335 264 315 328 322 262 327 316 320 256 329 259 336 290 341 219 333 268 298 260 293 261 294 242 289 194 275 214 274 184 265 163 258 167 249 271 248 299 224 285 200 240 153 90 150 99 199 330 256 230 309 323 312 305 293 311 277 277 271 283 259 261 228 217 189 167 166 129 166 123 177 169 215 243 254 313 286 312 318 334 314 312 311 298 295 275 299 284 301 299 302 287 298 294 301 295 301 308 290 302 307 305 299 306 305 306 299 297 294 295 295 287 294 301 287 293 279 282 277 280 272 277 260 264 254 260 255 252 256 240 244 271 234 255 203 198 221 138 261 210 266 279 341 404 358 453 401 417 420 393 392 378 376 378 358 367 340 325 320 285 300 252 279 217 283 232 303 268 321 348 353 399 372 407 387 371 389 347 369 345 356 340 346 342 347 337 348 331 344 347 346 340 355 337 347 335 348 343 348 351 344 352 347 355 352 351 344 360 339 341 337 346 351 346 341 341 340 329 342 315 321 316 318 304 300 286 303 281 305 289 291 294 282 289 261 206 260 136 297 273 291 350 344 393 380 411 395 381 404 369 384 369 382 361 365 343 334 322 313 279 282 238 264 209 281 227 292 266 323 343 352 374 366 375 373 351 342 355 358 337 350 346 351 365 351 344 350 326 342 341 338 339 335 333 322 330 318 309 333 314 321 312 322 300 317 290 319 293 312 298 313 255 317 265 318 293 336 218 323 292 305 292 291 277 284 261 288 260 288 259 286 281 280 234 275 199 303 131 -82 136 371 480 399 272 393 260 364 269 338 317 339 337 331 307 316 307 319 181 265 229 223 187 197 50 228 218 279 222 322 334 339 378 343 390 337 350 384 357 351 385 342 291 329 336 338 311 329 322 331 352 332 328 321 305 320 275 292 309 271 291 258 221 256 251 236 293 234 313 248 263 223 228 238 219 237 247 226 254 218 199 214 229 224 204 213 232 251 257 281 241 312 321 281 -24 -413 -2 524 560 440 302 373 287 329 340 298 331 314 325 310 307 275 282 264 242 222 192 151 152 131 132 164 190 306 289 342 307 317 310 316 312 317 312 312 340 307 319 307 313 306 298 316 311 296 297 311 299 332 301 290 283 303 279 291 303 303 281 307 274 297 275 311 277 294 251 269 274 256 252 265 256 220 233 212 211 256 261 288 246 318 323 312 165 -202 -170 417 682 460 407 388 312 352 334 351 327 365 375 351 358 360 325 354 317 291 281 237 251 140 172 213 198 272 279 350 433 398 327 349 362 323 339 331 363 316 367 349 401 310 362 357 373 302 329 315 317 312 353 319 355 327 318 299 289 311 290 283 271 333 428 247 276 238 227 271 350 309 334 312 379 382 204 -308 -88 462 543 580 408 394 368 340 343 361 364 347 359 335 334 379 355 307 321 285 340 205 316 152 249 175 286 310 312 402 363 406 372 376 385 375 368 368 363 373 322 356 381 374 353 376 350 345 346 349 340 345 339 346 339 351 342 345 337 334 339 338 334 328 321 341 306 347 308 289 296 270 284 271 271 282 306 376 318 373 295 384 212 -438 224 674 349 524 417 423 398 391 395 377 384 385 381 362 353 355 343 323 313 312 276 261 258 176 230 200 247 310 300 386 349 438 377 406 371 367 366 361 347 327 340 336 342 366 341 327 323 347 329 335 316 329 312 314 318 343 322 324 322 306 309 337 309 302 299 302 308 278 293 283 276 256 275 261 267 281 260 258 273 261 263 246 245 247 243 238 229 220 224 213 209 200 211 219 222 260 228 282 212 305 185 -327 232 516 265 450 382 425 411 445 403 363 366 348 345 340 337 339 320 323 294 281 259 246 220 114 211 167 240 216 242 319 301 424 322 381 340 340 337 346 329 376 329 341 318 346 315 324 320 343 330 322 331 378 329 379 331 354 325 350 330 365 316 370 324 339 336 360 330 318 311 262 312 266 316 248 318 267 316 292 314 247 303 209 299 208 297 260 300 186 255 153 265 171 262 152 256 255 257 185 262 276 264 209 226 195 165 63 106 56 156 235 251 220 284 294 289 278 267 239 244 268 223 247 202 210 170 185 144 131 130 100 120 93 153 132 186 221 236 267 273 310 296 315 300 297 287 284 275 282 284 274 286 269 284 293 278 283 290 284 289 276 289 293 286 287 289 281 293 294 283 284 286 285 281 295 278 288 279 288 285 283 279 285 284 286 280 283 275 274 263 243 262 263 257 257 258 270 238 276 226 200 223 136 265 223 263 271 330 415 344 441 388 394 393 363 373 358 350 360 335 344 314 326 277 281 247 210 241 179 263 189 282 252 306 342 340 381 358 374 366 357 371 346 361 342 367 339 369 339 361 340 367 345 357 343 361 348 354 354 352 349 350 345 347 340 348 331 344 312 314 322 304 310 316 308 315 334 317 360 291 351 276 239 258 165 229 231 293 362 347 414 383 412 379 382 370 365 358 361 340 358 321 338 285 293 246 250 217 190 227 166 237 216 269 274 295 334 326 358 340 365 352 354 354 338 343 326 343 338 342 336 341 348 338 338 339 335 340 345 338 345 338 347 342 317 332 334 331 336 309 310 300 303 300 273 299 305 300 326 282 315 289 241 283 164 159 164 330 590 420 335 439 378 421 325 387 390 383 340 374 339 363 290 338 359 303 269 260 126 269 136 299 175 325 221 364 328 378 373 381 332 387 375 389 346 377 380 375 409 360 397 362 368 369 325 366 330 369 374 372 351 364 332 358 362 356 373 349 374 340 320 344 353 337 326 330 304 325 308 315 314 315 358 317 284 311 343 304 346 301 269 289 315 280 253 283 338 278 287 280 267 258 198 111 -318 372 723 413 433 434 341 399 381 381 373 373 371 375 382 353 330 333 339 301 301 269 236 235 241 226 207 262 255 323 321 330 346 334 356 327 306 325 309 315 337 304 320 301 294 298 320 289 329 301 298 294 302 292 311 302 306 307 342 292 299 274 303 285 306 298 270 273 294 283 273 261 265 256 310 278 251 303 285 284 258 263 264 268 279 266 248 254 234 236 279 259 219 254 228 285 243 296 271 348 326 322 -58 -449 121 556 535 453 330 360 349 327 346 319 355 326 355 317 332 302 315 279 344 298 227 232 197 217 211 229 245 334 294 348 353 362 371 344 439 332 317 349 358 368 313 365 383 357 357 352 402 355 370 356 315 325 342 346 305 360 311 337 401 326 339 313 374 321 397 338 317 328 330 311 335 314 333 318 350 299 295 281 356 255 279 286 361 233 278 276 265 315 346 371 383 274 12 -464 280 731 384 427 343 351 401 358 257 310 341 308 329 298 305 283 290 291 265 232 314 175 296 155 192 210 208 300 270 360 270 358 309 378 331 336 319 339 334 298 328 312 321 314 327 301 294 340 305 308 304 330 306 303 305 320 294 305 311 336 299 286 293 283 271 282 257 329 299 257 268 268 268 263 270 239 228 261 257 322 261 337 269 355 170 -330 219 601 324 592 417 411 410 400 391 409 381 393 388 371 370 389 350 379 349 341 320 319 266 219 259 223 276 303 320 430 363 450 389 399 400 390 387 364 395 396 374 380 381 380 367 366 371 375 366 375 373 377 369 393 359 365 360 377 367 357 361 353 358 360 369 357 364 369 356 373 367 373 357 359 369 399 362 367 358 344 347 348 344 331 334 335 332 336 324 317 325 357 351 
#avL[uV]
65704 59866 52615 47214 39520 34205 26407 20573 13308 7993 202 238 223 246 202 234 207 234 201 230 214 210 197 200 190 195 186 204 192 193 217 206 212 189 227 199 184 151 189 150 158 179 223 217 265 190 97 114 174 189 236 162 182 170 160 177 199 182 169 216 180 180 192 201 209 200 201 220 210 197 199 217 184 180 222 176 240 173 195 217 194 156 201 190 188 188 166 189 200 196 219 185 233 192 251 250 154 191 151 187 265 241 153 177 237 219 226 202 263 200 249 198 260 246 212 197 252 205 232 262 293 206 229 230 262 212 243 210 226 208 247 266 290 221 252 204 213 216 225 159 189 230 306 307 294 61 120 135 186 180 172 170 190 172 197 223 177 172 191 169 190 252 240 189 186 230 202 209 213 201 202 226 197 187 186 168 174 181 174 256 201 179 187 196 184 198 188 186 180 249 186 190 188 182 169 184 201 219 188 170 169 196 179 192 176 163 190 161 181 221 179 184 183 185 174 185 182 187 179 170 179 214 174 156 176 192 173 185 192 206 202 205 185 204 172 163 180 152 204 198 185 305 178 64 135 105 133 174 166 137 151 188 165 155 157 157 162 163 171 214 190 178 189 217 190 187 195 178 179 189 172 162 155 132 166 144 161 161 159 157 149 184 158 173 172 156 165 155 163 137 151 157 157 146 158 123 160 144 149 151 147 152 145 151 167 157 168 165 178 142 162 155 170 167 166 166 159 178 174 159 173 199 185 224 189 164 172 176 172 176 190 202 161 205 125 68 145 83 143 111 150 132 182 106 182 122 175 133 170 191 185 131 196 123 205 169 206 178 203 199 195 157 170 64 154 107 148 60 146 -87 143 65 137 125 161 34 163 137 158 73 162 62 159 157 160 130 179 145 192 89 160 136 158 150 162 153 169 201 176 185 167 192 169 208 184 208 181 138 187 167 165 147 156 189 152 206 179 96 149 98 139 183 151 178 171 179 181 199 167 194 187 194 190 205 201 208 223 226 217 222 213 219 206 204 192 177 186 167 181 180 168 160 179 177 174 165 181 188 174 194 175 185 173 184 179 177 179 174 184 169 178 172 168 179 169 162 165 174 169 175 162 175 166 176 172 164 171 169 167 182 168 169 179 168 184 183 194 196 190 190 184 216 195 193 196 196 198 205 176 192 175 183 173 132 161 139 160 152 166 187 166 187 182 182 180 168 187 173 195 189 199 204 200 209 208 208 202 197 191 191 188 176 182 163 174 158 184 176 180 184 172 182 182 182 183 184 185 191 182 201 186 183 184 190 178 185 184 182 189 171 189 175 182 170 179 175 171 178 173 162 175 174 177 166 163 169 172 166 167 145 177 164 180 164 186 188 189 188 192 190 184 183 187 177 194 172 195 193 180 168 197 162 187 113 176 151 175 166 171 177 172 181 187 168 189 172 199 171 208 175 222 207 216 211 218 205 204 192 206 193 199 181 195 165 196 156 187 154 201 178 172 190 174 189 175 177 177 187 176 188 177 176 175 178 179 187 184 193 183 220 159 200 170 200 170 204 167 190 160 189 169 181 162 199 156 197 143 186 129 219 153 172 160 189 179 201 182 199 177 165 178 156 166 162 172 190 171 210 131 189 183 171 123 16 144 129 154 122 163 191 160 137 160 156 169 152 176 144 175 188 206 156 200 76 197 246 193 139 182 82 173 101 178 88 176 36 176 85 145 68 179 53 171 120 176 112 165 146 176 65 165 66 172 106 177 135 166 140 185 158 186 165 172 129 153 177 190 50 188 83 172 97 211 184 182 137 184 198 227 136 215 191 220 230 195 183 218 220 190 155 189 135 189 163 235 249 169 200 46 54 170 144 191 145 163 138 184 149 154 158 165 164 229 174 177 183 206 199 215 198 204 204 199 177 155 195 172 161 172 151 168 150 159 150 177 169 191 152 171 154 173 170 178 184 189 172 163 162 148 153 203 174 159 159 165 193 169 158 153 175 156 165 170 163 150 183 154 180 166 156 210 189 201 195 194 201 159 162 164 147 166 166 214 294 217 126 -2 3 233 217 164 188 210 193 172 168 180 218 201 178 191 192 200 258 227 214 258 269 272 246 238 203 181 177 152 151 126 150 143 129 145 153 166 124 137 182 164 90 123 126 145 112 145 151 129 138 133 125 128 159 162 147 140 165 135 144 135 137 179 178 158 192 185 185 151 173 121 150 121 184 257 235 160 94 -3 174 184 262 192 221 230 207 184 242 192 228 184 217 245 213 194 211 211 233 249 248 248 263 227 207 180 187 173 178 168 208 190 183 167 167 174 168 198 247 174 166 172 178 229 205 169 168 174 184 184 170 204 166 196 171 175 165 203 176 144 161 176 169 152 162 194 155 182 178 193 178 183 173 171 141 187 138 130 156 196 153 208 139 35 124 137 126 172 141 148 145 167 169 157 137 170 144 153 146 171 155 164 156 196 177 185 152 161 156 136 143 124 144 168 132 128 130 154 138 137 140 169 138 158 160 187 165 155 159 160 152 172 157 165 152 156 155 160 150 144 161 157 162 157 149 159 152 157 159 165 186 192 183 164 156 170 150 193 169 163 159 158 157 168 165 162 159 172 173 190 178 183 185 205 172 170 172 137 178 142 169 172 153 230 139 44 130 99 113 83 112 111 111 126 124 105 131 115 124 105 125 94 129 77 127 123 143 149 155 125 144 87 160 109 122 50 129 73 125 109 121 52 114 25 123 65 127 73 129 116 123 123 116 91 126 16 131 8 138 42 137 51 126 2 137 21 138 41 138 29 149 56 160 79 129 111 125 119 129 125 138 96 139 120 140 174 144 170 147 78 155 180 188 182 152 179 149 165 151 134 157 191 156 124 140 172 141 170 131 180 177 158 121 103 102 133 119 123 127 142 140 166 146 148 154 158 164 178 175 171 168 196 175 187 186 193 173 181 162 157 160 164 153 150 146 143 149 165 162 158 170 166 170 171 163 183 174 168 177 177 169 179 176 177 175 174 173 172 170 172 170 158 166 184 174 177 171 169 177 175 176 168 167 180 177 182 171 180 171 176 175 187 195 199 188 188 193 200 193 190 200 188 187 208 187 197 177 173 185 137 172 128 170 168 171 199 184 197 198 201 204 205 218 221 223 232 242 237 249 260 243 270 254 231 237 218 222 198 203 190 201 196 204 203 196 207 207 206 200 200 208 199 213 193 200 184 197 193 192 194 197 197 193 192 197 199 200 194 198 190 200 191 183 203 195 212 199 213 201 197 194 191 197 197 166 199 162 188 164 193 146 129 157 151 185 191 199 205 206 213 207 203 204 207 210 214 218 228 234 222 233 248 231 247 218 225 203 208 202 198 189 184 182 168 170 168 171 178 183 189 177 178 164 193 168 178 170 178 173 173 165 171 168 179 166 175 159 184 167 175 157 167 164 187 164 197 175 196 171 179 170 171 175 162 155 189 141 191 145 180 156 88 186 196 211 193 200 236 208 150 206 219 205 218 209 169 210 138 220 209 228 270 248 230 224 158 203 243 183 209 185 80 187 139 178 71 172 80 175 102 177 54 179 59 177 144 166 110 166 125 168 112 159 110 170 129 168 81 161 116 167 91 173 94 172 98 167 79 171 157 163 82 176 148 175 54 172 150 174 95 166 46 176 176 185 102 182 167 184 77 184 132 186 157 192 244 196 267 133 -57 150 163 156 169 166 167 167 163 164 150 169 208 173 173 176 159 187 183 199 195 200 228 207 198 199 186 169 175 196 178 185 187 199 180 177 183 181 202 202 189 195 198 188 184 199 181 195 201 212 199 220 185 193 181 189 216 201 190 229 174 216 210 207 206 248 194 212 196 233 190 248 230 203 199 200 186 206 210 222 197 208 214 251 207 237 211 258 250 230 219 249 220 207 212 216 187 232 239 295 293 189 228 151 113 200 174 264 237 228 169 205 188 250 195 220 197 269 187 251 237 198 216 241 223 212 202 200 265 235 190 181 193 172 159 253 228 196 191 179 205 171 215 177 162 200 268 195 154 179 163 196 219 210 192 191 224 184 230 188 168 205 225 207 178 198 231 207 250 196 252 194 256 205 185 196 251 195 268 198 277 248 299 265 257 229 296 199 254 188 237 235 284 313 239 84 208 71 271 220 235 193 130 218 351 192 236 210 220 203 240 247 226 207 232 241 203 254 214 242 324 259 299 210 202 187 256 179 255 232 208 227 208 227 202 201 178 214 192 203 190 211 222 201 192 218 192 197 196 220 195 207 198 207 222 181 196 223 202 196 224 167 233 255 205 209 196 235 208 231 230 252 223 215 201 190 214 203 235 285 241 283 175 49 201 238 199 250 224 247 231 231 211 218 207 244 218 232 223 229 213 239 227 271 252 264 233 243 229 215 224 201 213 219 211 214 198 207 203 205 201 247 227 239 213 213 218 232 206 213 212 204 208 204 215 239 218 201 224 225 217 204 208 219 210 213 208 222 213 230 221 228 217 218 214 219 218 238 224 209 217 231 221 209 217 213 225 227 224 231 227 253 217 187 210 
#avF[uV]
-130235 -118673 -104289 -92733 -78351 -66925 -52403 -40866 -26464 -14935 -523 -539 -528 -541 -514 -533 -524 -533 -505 -547 -512 -509 -495 -496 -502 -534 -489 -505 -483 -478 -514 -515 -493 -482 -498 -487 -464 -510 -486 -506 -500 -591 -620 -403 -9 36 -500 -641 -506 -594 -512 -495 -419 -461 -440 -457 -527 -444 -442 -516 -432 -429 -440 -431 -417 -371 -367 -315 -367 -320 -348 -473 -396 -463 -512 -460 -550 -473 -482 -548 -476 -436 -507 -459 -472 -465 -546 -451 -487 -484 -513 -468 -492 -463 -583 -565 -519 -458 -559 -462 -579 -547 -538 -443 -609 -534 -500 -462 -645 -453 -555 -461 -575 -541 -552 -454 -495 -441 -561 -562 -574 -441 -560 -482 -538 -460 -546 -432 -550 -440 -518 -523 -575 -417 -486 -413 -530 -526 -542 -452 -475 -554 -429 166 -334 -709 -586 -693 -607 -587 -563 -581 -582 -584 -587 -645 -564 -555 -560 -541 -562 -639 -572 -511 -501 -484 -488 -445 -471 -431 -491 -545 -509 -578 -537 -579 -549 -576 -550 -648 -573 -528 -546 -541 -536 -563 -540 -543 -540 -655 -542 -548 -541 -540 -539 -532 -557 -620 -533 -526 -527 -552 -530 -554 -528 -535 -547 -499 -531 -590 -520 -535 -522 -533 -512 -517 -510 -523 -509 -492 -509 -597 -499 -483 -482 -495 -489 -488 -495 -473 -479 -458 -451 -504 -460 -473 -480 -511 -478 -597 -419 -21 -369 -547 -472 -679 -562 -584 -583 -513 -542 -581 -525 -531 -525 -517 -518 -508 -506 -564 -507 -456 -467 -463 -432 -358 -419 -368 -441 -495 -470 -507 -491 -536 -512 -514 -529 -548 -513 -490 -490 -485 -495 -481 -503 -498 -495 -489 -498 -478 -486 -499 -492 -478 -490 -448 -493 -468 -475 -502 -483 -472 -476 -483 -485 -484 -494 -457 -490 -432 -469 -461 -464 -459 -464 -444 -465 -451 -456 -449 -462 -444 -458 -446 -447 -426 -449 -438 -474 -434 -428 -519 -362 -134 -354 -153 -359 -559 -456 -446 -485 -470 -499 -425 -474 -417 -460 -416 -449 -429 -426 -390 -418 -344 -403 -273 -378 -220 -364 -290 -376 -302 -400 -382 -443 -433 -471 -440 -476 -600 -469 -379 -472 -389 -477 -363 -485 -399 -485 -389 -483 -318 -489 -416 -497 -421 -521 -364 -526 -358 -458 -397 -452 -411 -456 -396 -459 -395 -451 -400 -441 -376 -434 -372 -442 -375 -430 -410 -435 -467 -390 -433 -356 -430 -306 -297 -329 -196 -349 -428 -395 -414 -461 -502 -483 -485 -474 -510 -445 -472 -458 -478 -449 -466 -429 -425 -413 -394 -384 -352 -380 -342 -383 -373 -408 -421 -440 -481 -468 -493 -487 -495 -493 -490 -486 -464 -476 -464 -473 -478 -477 -485 -475 -472 -478 -472 -480 -469 -486 -477 -469 -474 -475 -485 -469 -468 -470 -480 -468 -472 -457 -471 -462 -463 -467 -465 -459 -462 -446 -465 -445 -450 -451 -445 -445 -448 -449 -457 -445 -443 -440 -457 -439 -464 -430 -451 -401 -404 -397 -330 -436 -394 -440 -411 -502 -544 -519 -605 -567 -605 -587 -581 -575 -560 -556 -547 -546 -540 -536 -514 -520 -489 -501 -461 -488 -425 -485 -430 -494 -459 -509 -525 -536 -563 -547 -565 -572 -548 -569 -531 -541 -527 -539 -522 -530 -527 -533 -528 -530 -533 -530 -530 -531 -530 -534 -523 -532 -517 -537 -514 -537 -526 -527 -522 -526 -530 -523 -530 -517 -522 -515 -515 -515 -512 -515 -515 -513 -508 -507 -474 -520 -480 -502 -480 -504 -493 -490 -475 -495 -471 -490 -472 -478 -472 -476 -461 -456 -400 -441 -305 -495 -435 -479 -463 -520 -545 -556 -578 -566 -559 -576 -550 -572 -537 -571 -533 -565 -514 -543 -498 -535 -486 -498 -450 -482 -414 -486 -420 -499 -459 -523 -525 -547 -540 -562 -532 -561 -506 -544 -533 -531 -528 -525 -535 -527 -543 -528 -531 -527 -515 -520 -517 -514 -518 -514 -520 -507 -524 -501 -529 -492 -515 -491 -512 -493 -505 -484 -481 -480 -482 -482 -480 -475 -454 -473 -462 -461 -479 -465 -438 -476 -464 -466 -481 -470 -478 -466 -460 -466 -426 -466 -416 -453 -443 -452 -425 -447 -410 -435 -320 -101 -308 -495 -496 -543 -402 -547 -382 -527 -461 -499 -454 -500 -493 -500 -460 -493 -452 -494 -370 -471 -386 -423 -263 -394 -296 -421 -358 -462 -304 -496 -436 -518 -466 -519 -426 -513 -436 -530 -425 -531 -439 -513 -412 -506 -449 -503 -458 -506 -387 -497 -418 -504 -434 -499 -441 -486 -416 -477 -468 -457 -456 -430 -350 -410 -429 -427 -344 -423 -396 -421 -361 -435 -413 -421 -356 -422 -446 -454 -391 -434 -390 -434 -459 -420 -387 -432 -452 -442 -412 -471 -377 -501 -484 -517 -224 243 -197 -570 -614 -610 -447 -564 -433 -492 -478 -482 -480 -468 -483 -476 -472 -505 -457 -441 -426 -428 -391 -366 -350 -335 -336 -363 -367 -461 -484 -514 -469 -490 -462 -484 -463 -476 -462 -490 -509 -499 -471 -478 -467 -480 -469 -495 -495 -485 -470 -474 -462 -480 -455 -493 -457 -462 -439 -457 -496 -473 -439 -460 -449 -453 -440 -482 -441 -445 -434 -423 -455 -422 -408 -475 -446 -422 -429 -407 -412 -416 -423 -453 -394 -485 -490 -527 -460 -15 43 -415 -685 -694 -625 -553 -501 -563 -527 -523 -496 -545 -593 -552 -536 -551 -517 -554 -575 -518 -496 -495 -521 -412 -418 -451 -402 -453 -457 -503 -584 -524 -477 -492 -492 -469 -492 -497 -488 -454 -550 -514 -491 -434 -488 -503 -486 -448 -481 -444 -455 -445 -478 -448 -514 -489 -466 -439 -455 -446 -434 -419 -409 -512 -607 -405 -469 -424 -413 -423 -524 -430 -484 -433 -564 -640 -440 148 -5 -458 -717 -764 -671 -587 -590 -570 -551 -545 -607 -539 -588 -519 -551 -624 -568 -501 -533 -497 -574 -455 -565 -400 -512 -403 -493 -491 -500 -575 -542 -575 -580 -567 -569 -542 -536 -543 -532 -572 -569 -530 -547 -546 -531 -605 -555 -514 -514 -524 -525 -529 -510 -550 -506 -547 -514 -521 -503 -537 -516 -482 -496 -504 -490 -493 -469 -541 -463 -471 -475 -464 -462 -455 -444 -453 -448 -563 -457 -504 -451 -580 -365 230 -363 -710 -473 -661 -544 -596 -540 -540 -541 -544 -554 -543 -519 -533 -498 -509 -489 -495 -468 -477 -433 -458 -435 -362 -382 -361 -404 -447 -443 -510 -494 -606 -509 -535 -502 -521 -505 -499 -487 -497 -479 -494 -502 -553 -507 -483 -483 -507 -481 -507 -474 -495 -464 -470 -474 -503 -473 -468 -483 -463 -472 -494 -459 -462 -452 -459 -468 -443 -479 -475 -460 -420 -432 -431 -417 -475 -429 -422 -433 -420 -420 -414 -411 -409 -403 -411 -402 -410 -403 -397 -395 -405 -383 -389 -394 -397 -406 -425 -382 -478 -338 97 -372 -560 -396 -549 -495 -509 -523 -556 -514 -489 -491 -453 -476 -456 -462 -444 -446 -417 -423 -358 -387 -369 -364 -263 -367 -292 -385 -303 -402 -428 -423 -474 -452 -455 -465 -450 -459 -398 -444 -402 -453 -407 -446 -419 -445 -440 -443 -466 -446 -414 -457 -394 -460 -388 -469 -397 -463 -402 -457 -368 -454 -392 -462 -381 -475 -390 -480 -375 -472 -341 -442 -378 -441 -367 -447 -393 -454 -389 -453 -367 -443 -383 -443 -378 -445 -338 -455 -366 -444 -336 -418 -350 -411 -317 -407 -390 -415 -376 -418 -401 -404 -382 -367 -366 -297 -244 -283 -214 -277 -338 -354 -353 -404 -418 -417 -420 -407 -405 -391 -417 -377 -406 -366 -388 -346 -357 -313 -327 -306 -288 -306 -287 -326 -314 -349 -379 -396 -431 -427 -460 -442 -458 -450 -463 -450 -443 -446 -449 -455 -446 -449 -452 -458 -462 -455 -461 -459 -463 -465 -454 -465 -467 -460 -459 -459 -454 -463 -452 -450 -468 -460 -462 -453 -464 -455 -463 -456 -456 -452 -463 -456 -467 -455 -466 -451 -459 -451 -462 -459 -443 -451 -451 -450 -457 -451 -461 -439 -464 -413 -409 -410 -334 -443 -397 -448 -409 -503 -543 -515 -610 -559 -594 -577 -560 -571 -559 -555 -566 -554 -565 -538 -558 -519 -519 -496 -471 -485 -449 -517 -421 -520 -471 -528 -540 -544 -571 -559 -571 -570 -561 -567 -553 -569 -548 -568 -539 -577 -539 -574 -533 -568 -530 -555 -536 -554 -542 -552 -552 -546 -541 -548 -545 -547 -534 -547 -521 -545 -504 -498 -526 -499 -522 -516 -521 -516 -532 -512 -551 -488 -549 -443 -439 -420 -353 -393 -425 -439 -492 -504 -566 -569 -603 -579 -588 -576 -578 -565 -565 -544 -565 -531 -553 -504 -522 -480 -472 -450 -439 -458 -414 -456 -441 -472 -482 -498 -532 -516 -543 -522 -534 -522 -523 -526 -517 -527 -516 -521 -516 -507 -529 -510 -527 -509 -516 -512 -509 -506 -516 -506 -525 -505 -522 -502 -502 -499 -509 -488 -504 -474 -498 -465 -501 -476 -469 -471 -484 -470 -497 -457 -477 -445 -431 -425 -356 -304 -345 -486 -678 -606 -531 -651 -572 -621 -561 -595 -541 -589 -559 -580 -557 -572 -460 -549 -497 -524 -478 -488 -397 -517 -367 -524 -333 -529 -464 -548 -537 -563 -453 -568 -472 -565 -446 -561 -426 -553 -482 -552 -463 -539 -457 -539 -512 -536 -435 -532 -456 -538 -486 -532 -461 -534 -461 -527 -444 -518 -489 -516 -466 -514 -415 -516 -451 -504 -405 -502 -461 -488 -391 -491 -463 -491 -413 -490 -434 -486 -438 -470 -392 -477 -445 -474 -417 -463 -420 -467 -416 -462 -420 -467 -425 -451 -442 -307 51 -506 -665 -563 -597 -590 -510 -565 -548 -549 -537 -538 -522 -545 -590 -526 -503 -509 -499 -489 -484 -468 -432 -436 -470 -433 -405 -462 -442 -492 -497 -527 -524 -519 -544 -526 -486 -502 -492 -496 -540 -506 -510 -497 -492 -486 -504 -489 -511 -496 -499 -506 -501 -512 -497 -495 -487 -497 -558 -494 -490 -504 -478 -502 -516 -505 -477 -522 -488 -496 -470 -495 -456 -504 -541 -481 -451 -504 -471 -491 -468 -486 -461 -476 -493 -517 -456 -492 -446 -495 -529 -489 -439 -504 -448 -493 -455 -513 -458 -581 -565 -617 -235 259 -349 -707 -649 -653 -505 -625 -586 -556 -515 -524 -544 -576 -550 -538 -530 -572 -503 -530 -582 -497 -444 -473 -421 -429 -413 -429 -510 -570 -484 -529 -546 -534 -531 -598 -668 -528 -508 -529 -564 -540 -528 -542 -546 -558 -625 -547 -556 -535 -533 -553 -535 -535 -535 -537 -529 -544 -541 -526 -570 -531 -565 -520 -552 -520 -629 -545 -567 -525 -583 -506 -591 -520 -519 -514 -601 -495 -564 -480 -634 -503 -578 -551 -619 -463 -574 -475 -520 -504 -583 -607 -667 -587 -251 380 -489 -803 -656 -648 -578 -544 -532 -577 -608 -503 -577 -518 -549 -502 -546 -531 -516 -499 -497 -473 -518 -429 -511 -398 -516 -469 -508 -510 -472 -548 -527 -537 -565 -610 -539 -564 -527 -566 -537 -500 -507 -526 -513 -518 -518 -512 -516 -541 -497 -527 -496 -527 -502 -523 -501 -527 -492 -512 -533 -517 -495 -509 -495 -480 -496 -450 -491 -584 -504 -467 -464 -504 -477 -495 -500 -492 -451 -476 -458 -512 -476 -541 -505 -641 -412 46 -394 -651 -526 -831 -616 -662 -635 -648 -622 -640 -593 -611 -595 -615 -588 -622 -573 -608 -562 -580 -547 -590 -519 -484 -492 -466 -505 -518 -544 -631 -577 -670 -601 -614 -599 -598 -590 -570 -597 -643 -601 -619 -594 -593 -585 -598 -577 -588 -578 -580 -581 -582 -584 -632 -578 -566 -585 -602 -585 -562 -570 -573 -569 -574 -577 -580 -577 -599 -578 -602 -584 -592 -571 -578 -587 -637 -586 -576 -576 -575 -568 -558 -562 -544 -560 -562 -557 -568 -551 -571 -542 -545 -562 
