ADC Sampling rate (Hz):
100
Fragment duration (sec):
20
Number of samples exported by each lead:
1999

#I[uV]
199 199 167 128 100 94 80 2 58 -54 37 9 -38 -35 -4 -18 -23 -21 11 15 0 1 -23 -5 -8 13 10 8 16 -10 -15 -3 -31 -16 12 -42 -2 111 146 27 -68 -73 -25 -7 -5 0 1 18 30 25 32 38 31 40 57 46 72 121 156 150 164 85 110 102 46 16 10 6 -17 -56 -41 -27 -16 0 -20 -6 4 4 -26 -43 -9 -15 -46 -28 -57 -6 25 -24 36 -27 -34 5 -22 -11 -5 -2 -24 6 15 -12 -4 20 1 -3 12 10 24 30 5 -39 -22 0 -6 -8 0 83 82 -17 37 -21 -134 -16 -1 -38 14 9 24 18 -6 21 5 7 39 13 49 75 86 115 133 104 87 99 56 17 -37 -37 0 -46 -39 -35 -15 -28 -50 -38 -26 -16 5 -17 -14 -21 -29 -45 -29 -8 15 -15 -39 -13 7 -33 -15 -36 6 -8 3 4 -19 17 37 30 15 45 60 27 25 21 -9 18 -5 18 2 48 154 150 41 -95 -69 5 8 -11 13 16 22 15 3 24 21 30 6 27 44 78 85 85 137 114 129 81 12 9 -32 -24 -35 -37 6 -7 -56 -35 -55 -44 1 4 -19 -21 -13 -29 -11 -6 -14 5 -11 -24 -25 -8 5 -9 -41 -12 -6 -30 -21 -32 -35 -36 -17 -18 1 11 -58 -52 -1 10 -23 -8 17 -9 -39 -35 -35 -32 -51 -58 -13 48 78 132 76 -111 -169 -49 -58 -12 305 324 253 275 220 267 248 221 212 267 208 234 235 227 253 246 226 185 177 137 112 86 79 70 64 62 36 69 63 69 57 47 92 67 16 47 61 41 35 34 68 69 38 56 31 26 40 37 55 43 42 28 54 16 43 40 31 39 35 37 33 30 55 57 37 53 70 81 47 20 5 22 12 28 22 41 71 201 244 26 -138 -97 19 1 12 24 3 25 23 -18 6 44 1 8 32 39 64 132 126 112 138 98 36 -17 -34 -15 -7 -1 13 0 18 7 19 41 30 72 54 51 43 84 48 35 45 33 53 34 9 25 14 7 5 -5 7 -12 -45 -30 -27 -30 -21 -19 -28 -61 -23 -34 -48 -22 -45 -43 -16 -46 -27 -27 -60 -72 -89 -69 -67 -39 -1 0 123 61 -204 -215 -89 -80 -75 -85 -63 -78 -67 -36 -63 -44 -84 -71 -31 -26 8 19 59 61 49 79 51 -21 -49 -83 -83 -76 -105 -88 -69 -101 -74 -122 -100 -89 -113 -106 -116 -95 -73 -94 -130 -100 -110 -125 -115 -117 -118 -99 -125 -146 -134 -120 -126 -147 -128 -128 -97 -111 -105 -88 -87 -102 -84 -70 -117 -143 -120 -151 -122 -139 -140 -92 -37 87 -4 -279 -266 -147 -141 -145 -171 -145 -111 -137 -145 -116 -116 -141 -111 -111 -110 -96 -28 -24 9 26 -11 0 -48 -83 -116 -121 -148 -147 -142 -165 -175 -153 -124 -133 -163 -140 -161 -147 -144 -143 -142 -145 -149 -130 -132 -144 -134 -142 -156 -180 -161 -156 -153 -131 -182 -171 -145 -162 -146 -142 -160 -112 -118 -150 -132 -132 -126 -108 -89 -112 -148 -108 -176 -173 -146 -165 -149 -106 14 178 -26 -283 -214 -175 -157 -120 -146 -97 -115 -140 -124 -139 -116 -105 -150 -117 -88 -66 -42 -28 -6 10 -8 -3 -57 -114 -38 -142 -140 -129 -133 -113 -152 -163 -123 -133 -114 -140 -118 -78 -161 -127 -89 -109 -128 -126 -140 -117 -133 -119 -115 -124 -110 -106 -131 -114 -108 -117 -77 -95 -135 -110 -92 -90 -106 -103 -66 -91 -90 -87 -84 -39 -65 -92 -110 -108 -125 -119 -109 -108 -86 17 154 36 -256 -248 -117 -111 -95 -112 -68 -78 -123 -82 -94 -82 -73 -73 -73 -59 -38 -35 36 61 31 56 8 -32 -47 -105 -96 -114 -148 -102 -120 -132 -99 -108 -139 -113 -102 -116 -103 -127 -100 -132 -127 -102 -115 -113 -122 -110 -141 -133 -135 -80 -125 -131 -118 -100 -131 -115 -117 -93 -83 -124 -92 -91 -129 -77 -94 -88 -54 -58 -53 -76 -93 -88 -119 -97 -99 -59 -48 35 121 66 -191 -216 -59 -63 -38 -52 -48 -57 -66 -28 -31 9 -7 -37 -26 -27 -7 46 76 99 127 89 54 44 -9 -40 -61 -70 -55 -79 -86 -70 -39 -104 -70 -35 -74 -89 -77 -34 -37 -67 -89 -43 -70 -88 -56 -68 -54 -46 -55 -70 -35 -79 -103 -46 -72 -72 -54 -65 -50 -37 -57 -28 -4 -25 -75 -76 -65 -92 -54 -34 -97 -18 20 97 59 -212 -203 -107 -35 -24 -93 -34 -16 -58 -51 -63 -43 -35 -70 -13 4 -7 1 32 73 74 95 67 13 0 -37 -50 -50 -93 -79 -52 -62 -72 -43 -47 -45 -69 -54 -17 -28 -23 -63 -67 -17 -19 -48 -54 -23 -50 -69 -46 -45 -37 -3 -12 -59 -17 -6 -68 -21 -12 -40 -6 0 -16 11 27 -9 -33 -22 -48 -58 -34 -42 -39 -35 60 118 100 -91 -189 -74 -45 -47 -33 -47 23 0 -48 -27 -9 -8 -32 -6 -7 15 54 40 80 61 90 52 31 -1 -46 -42 -105 -54 -79 -99 -89 -74 -77 -80 -68 -110 -89 -33 -95 -81 -71 -80 -75 -67 -55 -91 -100 -56 -81 -73 -73 -62 -80 -66 -69 -66 -80 -91 -68 -72 -68 -54 -76 -47 -73 -38 -58 -63 -22 -64 -41 -28 -47 -23 -49 -5 9 -39 -36 -51 -67 -67 -36 -33 -27 40 121 114 34 -150 -112 -7 -6 -18 -34 -18 2 10 7 -14 0 3 5 28 39 -6 71 119 98 120 100 62 47 26 -8 -17 -36 -30 -24 -41 -32 -6 -25 -57 -24 -8 -24 -24 0 10 -1 -19 -9 -16 -7 -17 3 36 27 28 -11 -29 -9 14 -3 3 10 11 24 -7 1 10 7 13 29 30 -11 10 8 20 20 6 24 9 12 22 42 41 0 45 86 23 -21 8 -9 -19 0 0 -2 87 119 98 50 -156 -149 -20 2 -62 -30 -18 -65 -55 -26 -42 -58 -41 3 -53 -63 -25 11 51 56 60 67 39 14 -2 -42 -89 -104 -102 -89 -103 -80 -87 -83 -60 -120 -85 -81 -127 -86 -82 -65 -88 -92 -81 -82 -64 -76 -78 -49 -54 -84 -48 -59 -89 -89 -78 -76 -50 -49 -87 -45 -42 -93 -60 -41 -67 -54 -64 -38 -52 -47 -60 -60 -16 -23 -2 -9 -67 -52 -70 -38 -8 -61 -17 -12 56 252 56 -184 -168 -109 -43 -29 -42 -22 -21 6 -6 -11 11 -9 -13 33 11 11 46 80 123 136 138 150 62 34 10 -49 -51 -19 -7 -53 -23 -22 -61 -35 -38 -2 -8 -15 0 -40 -10 -31 -37 -13 40 11 -13 33 -75 -30 -15 -79 -39 -13 -17 -26 -28 -28 -36 -5 4 -15 -2 -34 -31 -16 -12 3 -8 -48 -68 -18 -11 -41 -43 -26 50 122 32 -178 -208 -103 -25 -26 -20 -31 -29 -10 -3 -37 -13 4 -21 26 48 25 47 106 82 139 150 130 82 17 11 -30 -5 -6 -60 -58 -59 -27 -41 -20 -30 -45 -34 -42 -15 -61 -46 -17 0 -18 -7 16 -18 10 29 1 6 29 20 31 31 33 25 51 41 25 32 61 43 5 16 -18 6 -26 -48 -29 -37 41 52 139 25 -209 -148 -74 -70 -20 -45 -66 -72 -37 -42 -43 -27 -26 -27 -4 15 -15 22 86 115 137 138 100 103 48 -21 -14 0 -20 6 -19 9 10 10 18 -31 20 3 1 35 20 35 5 40 36 19 23 17 39 23 35 14 16 58 17 44 54 36 44 52 23 40 60 64 55 45 49 74 73 51 35 41 19 5 22 53 52 151 154 79 27 -123 -72 38 -9 9 -2 -17 10 0 0 -28 -7 21 29 -7 27 50 79 119 108 121 122 93 65 41 -12 -5 -28 -39 -17 -46 -28 -12 -23 -11 -40 -8 -28 -71 -1 -34 -20 -1 -13 -28 -20 -45 -58 -35 -21 -33 -26 -22 -30 -22 -19 -32 -9 -29 -9 -15 -43 -32 -21 26 2 3 35 38 49 23 15 -24 -28 5 -17 -20 -14 27 76 227 173 -128 -191 -52 16 -16 -16 -15 15 -17 9 26 23 39 50 25 41 74 100 118 147 179 181 147 161 113 58 48 12 10 15 21 -5 5 7 22 17 19 31 -4 -5 -7 1 26 1 1 24 -20 -10 -22 -12 -18 -34 0 -26 -37 -18 -6 -37 -52 -41 -49 -37 -28 -37 -8 -25 -35 -21 -34 -25 -35 -8 -21 -9 11 14 -1 -30 -53 -42 -18 -8 -6 -2 87 233 164 -157 -185 -87 -13 10 -18 -14 -15 11 0 -19 19 21 21 56 24 53 83 84 154 144 115 130 112 40 18 12 -10 -7 -20 -33 -41 -18 -18 -6 -48 -41 -30 -33 0 -37 -9 3 -18 -16 -25 -15 -5 -43 9 -25 -37 -12 -37 0 -26 -47 -17 -27 -12 -15 -28 -6 -25 0 15 13 38 48 60 11 1 0 -24 -1 21 -5 -28 57 111 196 91 -174 -137 -21 -13 13 3 20 19 -5 21 37 -5 29 58 65 55 62 102 122 163 211 205 241 187 125 82 71 70 87 92 54 54 58 30 53 46 56 58 44 56 77 30 44 39 19 55 27 41 31 55 27 16 39 46 28 18 33 37 13 23 23 10 42 16 -3 24 13 24 25 31 25 69 74 70 44 9 35 43 40 33 54 71 137 288 223 -42 -87 -16 53 45 47 33 52 72 49 41 40 33 47 48 55 64 65 95 145 122 152 164 117 97 32 8 -3 -16 -22 -28 -16 7 4 7 -3 6 19 2 14 -13 -2 31 -17 20 -7 -17 31 -26 -13 22 -4 -3 22 -20 -29 -6 -8 -24 -3 -10 -9 0 -31 -5 -3 -46 -1 -13 -31 -18 -7 -20 -22 -13 -5 -6 -8 -10 -22 0 24 13 -43 -32 -16 -20 -1 -12 10 35 98 243 220 -60 -120 -31 -12 6 15 11 11 -5 4 4 11 21 -3 37 50 36 68 93 127 118 142 153 120 108 66 19 16 -12 -1 -2 -24 2 0 2 16 -4 16 17 -16 6 11 10 39 4 16 45 24 -11 18 -4 6 9 -5 23 15 12 11 7 28 49 32 6 7 -6 -6 18 24 24 15 30 37 0 10 15 46 35 10 32 37 38 39 38 62 57 31 33 2 -9 -33 -20 -7 -11 54 117 199 -40 -247 -142 -55 -76 -44 -57 -59 -52 -104 -67 -51 -72 -72 -28 -59 -47 -24 -18 38 61 37 69 91 4 -5 -49 -77 -70 -84 -87 -100 -66 -66 -82 -87 -63 -62 -70 
#II[uV]
6246 6335 5004 5052 3571 3896 2321 2641 1078 1386 -141 -88 -161 -145 -85 -218 -9 -309 33 -271 20 434 -133 208 -57 84 22 -4 -53 -137 -178 -104 -187 -141 -184 -131 -311 -31 356 228 288 89 -240 -204 -297 -237 -278 -235 -247 -195 -220 -180 -203 -173 -190 -168 -104 17 39 74 132 85 72 56 -35 -67 -133 -146 -212 -201 -236 -204 -211 -169 -211 -149 -164 -162 -168 -157 -154 -136 -161 -135 -203 -161 -180 -183 -178 -164 -195 -178 -199 -196 -190 -149 -176 -131 -136 -152 -117 -38 -69 -20 9 -4 -63 -82 -146 -174 -170 -140 -181 -80 -228 12 87 257 803 225 -122 -92 -190 -96 -123 -80 -74 -71 -99 -58 -79 -19 -45 -6 15 114 108 187 210 167 168 169 86 72 -41 -38 -73 -103 -125 -88 -101 -64 -105 -49 -98 -57 -58 -40 -55 -59 -70 -82 -92 -44 -52 -28 -79 -30 -25 -34 -68 -19 -41 6 -40 -39 -35 89 82 95 105 108 23 16 -21 -6 -69 3 -93 30 -164 21 286 481 680 132 -119 -108 -160 -112 -126 -45 -104 -97 -83 -35 -56 -21 -62 16 21 122 129 192 237 230 207 145 74 26 -19 -15 -74 -46 -47 -24 -106 -60 -82 -71 -34 21 -42 11 -19 -17 -16 -14 -42 -6 -27 -7 -69 -14 -19 -29 -80 -32 -53 -63 -83 -56 -82 -57 -83 -67 -60 -49 -104 -7 11 42 22 31 7 -67 -111 -105 -130 -81 -118 -64 -100 -58 -8 596 941 82 -143 -121 -212 -14 -197 87 -224 -268 -89 -130 -57 -74 -51 -12 -3 78 142 207 268 286 249 194 120 64 3 -47 -92 -97 -125 -131 -143 -103 -94 -62 -85 -84 -52 -66 -110 -74 -71 -76 -100 -91 -71 -56 -95 -77 -82 -89 -71 -72 -62 -21 -75 -47 -39 -63 -52 -28 -62 -36 -52 -35 -48 -9 28 76 53 98 71 -4 -62 -77 -121 -72 -105 -81 -122 -187 -196 277 924 625 -17 -205 -210 -195 -186 -165 -163 -135 -141 -147 -134 -85 -127 -92 -67 -32 26 123 157 194 219 190 92 -10 -67 -79 -74 -77 -126 -117 -107 -78 -75 -68 -56 -10 -44 -12 -63 -39 -49 -72 -74 -86 -84 -117 -143 -108 -130 -131 -133 -149 -149 -183 -214 -169 -147 -173 -161 -160 -196 -197 -157 -156 -131 -70 -72 -17 -54 -131 -139 -116 -185 -172 -210 -177 -201 -192 -260 -237 594 881 172 -109 -202 -286 -207 -247 -219 -222 -213 -192 -217 -178 -229 -191 -127 -127 -117 -50 28 100 116 118 90 -17 -59 -115 -153 -188 -240 -241 -236 -274 -222 -234 -200 -187 -201 -179 -178 -172 -156 -163 -199 -175 -175 -176 -198 -211 -198 -134 -172 -192 -178 -167 -126 -241 -70 -511 -396 -255 -215 -191 -148 -102 -150 -156 -221 -241 -255 -237 -247 -238 -295 -334 -262 566 809 8 -193 -270 -317 -319 -290 -248 -209 -199 -221 -179 -180 -166 -163 -178 -151 -98 6 72 130 187 148 120 77 -53 -109 -94 -141 -149 -162 -198 -207 -165 -164 -204 -186 -158 -175 -178 -213 -161 -167 -158 -189 -236 -177 -227 -169 -182 -225 -195 -199 -229 -213 -219 -213 -212 -196 -214 -192 -190 -214 -170 -215 -171 -84 -59 -22 -49 -84 -135 -158 -184 -263 -178 -179 -255 -299 -266 18 844 728 -77 -254 -284 -267 -245 -217 -179 -236 -203 -173 -220 -209 -161 -185 -135 -139 -104 -31 39 94 155 143 73 8 -87 -27 -178 -205 -192 -200 -187 -226 -213 -166 -202 -157 -171 -167 -95 -167 -151 -118 -204 -151 -179 -150 -155 -188 -187 -237 -190 -164 -186 -191 -227 -182 -172 -148 -167 -205 -163 -167 -248 -251 -227 -171 -109 -90 -66 -80 -115 -159 -212 -213 -218 -246 -236 -248 -278 -376 -249 558 796 25 -267 -262 -314 -257 -282 -188 -217 -227 -189 -199 -251 -183 -149 -161 -125 -99 -50 77 125 147 125 86 20 -43 -128 -144 -210 -234 -261 -244 -258 -220 -226 -274 -215 -203 -264 -192 -219 -192 -274 -242 -218 -253 -233 -229 -240 -234 -289 -310 -257 -231 -223 -240 -198 -203 -258 -215 -162 -162 -215 -156 -161 -160 -119 -95 -52 -54 -118 -134 -198 -200 -199 -218 -245 -240 -214 -332 -256 508 860 104 -149 -226 -320 -177 -303 -199 -251 -213 -200 -166 -153 -196 -208 -158 -152 -107 -46 41 30 118 113 58 35 -21 -90 -128 -206 -158 -197 -236 -184 -148 -210 -176 -138 -165 -235 -182 -133 -136 -175 -180 -134 -200 -220 -151 -174 -161 -169 -166 -212 -165 -232 -248 -210 -209 -216 -186 -174 -151 -150 -108 -96 -99 -174 -241 -236 -224 -276 -225 -245 -287 -342 -282 492 749 74 -107 -297 -268 -255 -258 -264 -243 -270 -225 -221 -190 -186 -198 -164 -122 -121 -79 -18 70 86 116 101 23 -16 -94 -146 -147 -227 -189 -208 -198 -196 -163 -167 -149 -160 -109 -122 -100 -129 -130 -161 -114 -111 -131 -137 -106 -164 -145 -158 -133 -137 -103 -81 -130 -115 -49 -127 -52 -58 -32 0 36 71 74 25 -16 -75 -64 -138 -85 -116 -60 -135 -210 -128 545 981 303 -64 -68 -199 -59 -161 -110 -103 -53 -116 -70 -42 -27 -61 -29 -29 45 75 108 181 205 221 181 127 69 -14 -23 -105 -53 -99 -101 -103 -94 -109 -81 -72 -97 -92 -30 -94 -80 -76 -65 -83 -69 -68 -95 -120 -66 -110 -80 -104 -80 -126 -99 -119 -133 -162 -135 -140 -130 -149 -98 -134 -86 -158 -46 -199 -23 83 -182 22 -55 18 45 5 5 -54 -89 -116 -125 -149 -135 -123 -110 -217 -119 272 680 671 35 -195 -126 -154 -118 -170 -127 -109 -79 -84 -84 -78 -51 -62 -17 -1 -1 90 193 194 230 209 172 100 43 -30 -66 -112 -97 -126 -116 -132 -110 -121 -125 -109 -81 -97 -87 -74 -64 -76 -77 -80 -74 -74 -74 -72 -49 -50 -22 -93 -96 -89 -50 -88 -50 -66 -39 -48 -58 -62 -38 -78 -42 -50 -27 -80 -44 -66 -47 -89 -30 -67 -71 -41 1 22 32 16 44 -2 -85 -126 -101 -135 -136 -135 -105 -220 -115 123 584 746 44 -212 -161 -168 -171 -176 -154 -189 -156 -153 -154 -159 -132 -86 -108 -112 -46 28 93 138 195 189 150 88 36 -60 -105 -165 -170 -198 -210 -202 -203 -201 -162 -218 -159 -182 -214 -183 -170 -177 -177 -173 -178 -179 -162 -173 -173 -156 -144 -177 -141 -151 -155 -155 -155 -139 -123 -110 -135 -111 -66 -143 -122 -88 -113 -108 -91 -78 -56 -29 -5 -3 71 37 -32 -56 -86 -131 -135 -149 -107 -163 -91 -210 12 755 569 158 37 -246 -180 -178 -191 -162 -176 -130 -129 -130 -93 -142 -119 -88 -70 -25 32 102 185 233 270 267 175 98 48 -31 -81 -68 -72 -129 -68 -89 -106 -70 -43 -59 -55 -55 -41 -85 -63 -75 -91 -98 -46 -87 -100 -81 -95 -112 -78 -148 -110 -99 -86 -128 -118 -121 -118 -114 -75 -79 -48 -39 2 -37 -22 -84 -101 -178 -131 -151 -109 -156 -87 -253 -81 486 573 367 173 -133 -153 -172 -144 -172 -125 -135 -88 -129 -92 -109 -98 -69 -48 -35 20 89 133 189 224 209 170 82 24 -45 -45 -71 -119 -140 -88 -139 -104 -72 -88 -104 -89 -100 -47 -102 -42 -43 -31 -32 -19 6 -4 -9 55 2 27 17 41 41 45 44 46 99 161 151 176 153 100 16 24 -21 -12 -65 -43 -104 -70 -156 241 923 570 105 20 -217 -148 -129 -108 -149 -115 -98 -68 -112 -59 -75 -19 -43 20 -1 106 170 284 305 328 268 256 165 95 39 51 5 35 -2 36 4 33 44 32 59 56 41 106 78 63 34 58 54 59 22 40 42 39 37 18 18 73 1 57 8 38 24 58 19 53 63 102 114 167 133 157 55 32 10 0 -28 10 -22 63 -78 67 478 785 679 146 -71 -4 -78 -16 -59 -26 -3 27 3 25 0 38 44 43 66 133 200 305 317 361 338 309 198 159 77 45 5 -5 -11 -29 -48 -5 -27 12 -20 22 -18 -24 24 14 1 27 11 7 -7 6 -17 18 6 17 10 -4 -11 11 3 1 -6 8 8 23 -16 7 17 79 80 127 149 122 82 46 -32 -39 -86 -33 -80 -83 -71 -134 -97 639 1005 278 -95 -134 -122 -103 -142 -102 -104 -100 -97 -56 -56 -43 -32 -18 -7 81 130 183 261 326 328 300 290 196 113 83 14 1 -19 -14 -41 -29 -29 -7 -12 -13 -3 -51 -51 -39 -51 -27 -62 -62 -74 -96 -87 -127 -106 -90 -132 -75 -125 -110 -97 -99 -108 -133 -121 -120 -131 -115 -127 -98 -120 -106 -97 -96 -50 -19 7 39 39 -1 -23 -76 -111 -105 -105 -105 -93 -104 -205 -132 653 1014 327 -1 -122 -155 -108 -174 -144 -161 -128 -125 -132 -107 -106 -99 -64 -74 -31 36 60 168 194 230 190 225 133 33 7 -39 -52 -93 -99 -120 -98 -74 -73 -77 -43 -56 -34 -13 -40 -6 -30 -32 -21 -34 -34 -25 -37 -10 -31 -45 -31 -34 -11 -35 -64 -36 -36 -57 -47 -38 -28 -16 37 51 48 112 111 30 -5 -37 -75 -60 -72 -59 -75 -95 -126 -40 874 1053 270 53 -103 -122 -66 -87 -54 -66 -44 -32 -5 -26 -14 27 35 36 80 150 204 284 327 337 338 288 202 132 73 56 45 18 -33 -49 -21 -20 -10 5 15 18 11 24 48 -19 -7 4 -25 -12 -12 1 -19 6 -16 -28 -14 9 -13 -13 13 28 28 19 33 26 49 34 12 22 24 85 112 130 158 173 120 92 37 -7 9 17 17 -16 5 -56 -20 700 1072 449 66 -67 -88 -37 -68 -63 -48 -16 -40 -46 -22 -28 6 18 29 66 106 185 259 297 348 372 315 263 171 106 76 28 5 2 14 8 30 30 18 27 51 50 61 45 55 69 34 35 33 34 47 -9 -7 16 2 13 13 -10 -11 -20 -34 -19 -8 -31 -23 -11 -33 -9 -20 -34 -12 -24 -34 -25 -3 -13 -3 18 28 62 84 104 136 136 98 52 -18 -18 -29 -30 -9 -9 -11 -70 -14 712 1094 412 35 -39 -75 -23 -45 -33 -34 -39 -39 -38 -27 -15 -37 4 27 41 115 193 255 275 337 347 289 255 167 48 33 3 -8 -12 -34 -7 -9 -21 2 4 35 38 2 22 24 26 51 15 27 27 3 3 2 1 11 0 -1 -11 2 12 -9 -13 -3 -4 -20 -42 -41 -56 -55 -56 -56 -50 -51 -38 -28 -41 -53 -36 -16 -39 -28 -7 42 55 89 93 93 30 -44 -10 -53 -66 -77 -77 -79 -162 -138 315 1007 676 0 -140 -180 -199 -140 -153 -143 -110 -184 -163 -108 -155 -138 -78 -111 -98 -50 -40 79 143 174 180 214 122 54 -28 -81 -124 -150 -150 -174 -163 -173 -192 -145 -132 -142 -130 
#III[uV]
6046 6136 4836 4923 3471 3801 2240 2638 1019 1441 -178 -98 -123 -109 -80 -200 14 -287 22 -286 20 432 -109 214 -48 70 12 -12 -70 -126 -162 -100 -156 -124 -197 -88 -309 -142 210 200 357 163 -215 -197 -291 -237 -279 -254 -278 -221 -253 -219 -235 -214 -248 -215 -177 -103 -117 -75 -31 0 -37 -45 -82 -84 -143 -152 -194 -145 -194 -177 -194 -169 -190 -142 -168 -166 -142 -113 -144 -121 -115 -106 -146 -154 -205 -159 -215 -137 -160 -184 -177 -185 -185 -146 -152 -138 -151 -140 -113 -59 -71 -16 -2 -15 -88 -112 -152 -135 -147 -139 -175 -72 -229 -70 5 274 765 246 12 -76 -188 -57 -138 -90 -98 -90 -92 -80 -85 -27 -84 -19 -33 38 21 72 76 62 81 70 30 55 -3 -1 -73 -56 -86 -52 -86 -36 -55 -10 -72 -40 -64 -22 -41 -37 -41 -36 -62 -36 -67 -13 -40 -17 -32 -1 -52 16 -47 14 -44 -43 -15 71 44 65 89 62 -36 -10 -46 -27 -59 -15 -88 11 -167 -26 132 331 638 227 -50 -114 -169 -101 -139 -62 -127 -112 -87 -59 -77 -52 -68 -10 -22 43 44 106 99 115 77 63 62 16 12 8 -38 -8 -53 -17 -50 -25 -27 -26 -36 16 -22 33 -5 11 -5 -8 -27 -12 -16 16 -43 -5 -24 -20 -39 -20 -47 -33 -61 -23 -47 -20 -66 -49 -62 -61 -46 44 12 32 45 39 -10 -57 -72 -69 -95 -48 -67 -6 -87 -107 -86 464 864 194 26 -71 -153 -1 -503 -236 -478 -544 -310 -398 -306 -296 -264 -280 -211 -155 -92 -20 15 40 23 8 -57 -72 -108 -133 -171 -167 -190 -193 -180 -173 -158 -132 -143 -132 -145 -133 -126 -122 -132 -118 -136 -126 -140 -125 -133 -134 -113 -116 -111 -109 -118 -65 -117 -76 -93 -80 -96 -69 -94 -76 -88 -73 -81 -40 -26 18 15 45 1 -85 -109 -98 -127 -94 -118 -109 -144 -229 -267 75 679 599 121 -107 -230 -197 -199 -190 -166 -160 -164 -128 -141 -129 -129 -101 -100 -71 -38 -9 30 81 81 92 56 7 -32 -63 -67 -76 -140 -117 -125 -86 -95 -109 -86 -82 -99 -63 -106 -123 -98 -107 -120 -120 -137 -152 -153 -133 -144 -138 -138 -143 -156 -170 -169 -139 -119 -142 -140 -140 -167 -135 -134 -122 -82 -48 -27 26 -38 -85 -111 -89 -124 -100 -121 -107 -134 -152 -259 -236 471 819 377 106 -113 -205 -132 -162 -155 -144 -146 -155 -154 -134 -145 -119 -96 -100 -125 -69 -31 39 67 38 39 3 -10 -32 -69 -111 -135 -153 -166 -173 -147 -111 -100 -97 -87 -72 -61 -76 -82 -68 -68 -75 -64 -50 -82 -94 -79 -34 -47 -45 -43 -46 0 -93 57 -382 -298 -144 -109 -102 -61 0 -66 -86 -104 -98 -134 -85 -125 -98 -154 -242 -224 479 813 287 73 -122 -176 -173 -118 -103 -97 -62 -76 -63 -63 -24 -52 -67 -41 -2 34 97 121 160 159 119 125 29 6 26 6 -1 -20 -33 -32 -12 -39 -71 -22 -17 -14 -31 -68 -18 -25 -12 -39 -106 -45 -82 -35 -40 -69 -14 -37 -72 -60 -88 -31 -40 -51 -52 -46 -47 -53 -57 -97 -21 48 72 103 59 5 -23 -10 -75 -86 -4 -33 -89 -149 -160 3 665 755 205 -40 -109 -110 -125 -71 -81 -121 -63 -49 -80 -93 -55 -35 -17 -51 -38 11 67 101 145 151 76 66 26 11 -35 -65 -62 -66 -74 -74 -49 -43 -68 -42 -31 -48 -17 -6 -23 -28 -94 -22 -52 -10 -38 -55 -68 -121 -66 -54 -80 -60 -113 -73 -54 -70 -72 -69 -53 -75 -158 -144 -124 -105 -18 0 20 3 -76 -94 -119 -102 -110 -121 -116 -139 -170 -289 -267 404 760 281 -18 -144 -203 -162 -170 -119 -139 -104 -106 -104 -168 -110 -75 -88 -66 -61 -15 41 64 116 68 78 53 3 -22 -47 -96 -86 -159 -124 -125 -120 -117 -135 -101 -100 -148 -89 -91 -92 -141 -114 -116 -138 -120 -107 -130 -92 -156 -174 -177 -105 -91 -121 -97 -72 -142 -98 -68 -79 -90 -64 -69 -30 -42 0 36 0 -59 -81 -122 -106 -111 -98 -148 -140 -155 -283 -291 386 793 296 66 -166 -257 -138 -250 -150 -193 -147 -172 -135 -162 -189 -171 -131 -125 -99 -92 -35 -69 -8 24 3 -9 -12 -49 -67 -135 -103 -117 -150 -113 -109 -106 -105 -102 -91 -145 -104 -99 -99 -108 -90 -91 -129 -132 -95 -105 -106 -122 -111 -142 -129 -152 -145 -163 -136 -144 -131 -109 -101 -113 -50 -68 -95 -149 -166 -160 -158 -183 -170 -210 -189 -324 -303 395 690 286 96 -189 -233 -230 -164 -229 -227 -211 -173 -157 -146 -150 -128 -150 -127 -114 -81 -50 -2 12 21 34 10 -15 -56 -96 -96 -133 -109 -156 -135 -123 -120 -120 -104 -91 -55 -105 -72 -105 -66 -94 -97 -91 -83 -82 -83 -114 -76 -111 -87 -100 -99 -69 -70 -97 -42 -58 -31 -46 8 6 35 87 63 -2 -6 -41 -41 -89 -26 -81 -18 -95 -174 -188 426 881 394 124 6 -154 -11 -128 -63 -126 -54 -67 -42 -33 -18 -28 -22 -22 29 20 68 101 144 131 128 95 71 31 19 0 0 -20 -2 -14 -20 -32 0 -3 12 -3 2 1 1 -5 15 -7 -2 -12 -3 -20 -10 -28 -7 -31 -18 -45 -33 -50 -66 -82 -43 -72 -58 -81 -43 -57 -39 -85 -7 -141 39 105 -117 64 -26 66 69 55 11 -63 -50 -79 -74 -82 -67 -87 -76 -189 -160 150 566 637 185 -82 -118 -148 -100 -136 -109 -111 -90 -91 -69 -78 -54 -67 -46 -40 4 19 73 96 109 108 110 53 17 -21 -48 -76 -66 -102 -75 -99 -104 -96 -68 -85 -72 -73 -63 -73 -74 -74 -58 -71 -57 -67 -57 -75 -85 -77 -50 -81 -66 -80 -64 -85 -53 -76 -50 -73 -51 -64 -48 -86 -55 -79 -58 -68 -54 -74 -67 -109 -37 -92 -80 -54 -21 -19 -8 16 0 -89 -108 -104 -109 -125 -116 -134 -104 -217 -203 3 486 695 200 -62 -140 -170 -109 -145 -135 -124 -101 -126 -112 -101 -91 -89 -55 -48 -20 16 41 81 135 122 110 74 39 -18 -16 -60 -67 -108 -107 -121 -115 -117 -102 -98 -73 -101 -87 -97 -87 -112 -89 -81 -96 -97 -97 -96 -95 -107 -90 -92 -92 -92 -65 -66 -76 -62 -73 -60 -47 -65 -23 -50 -62 -46 -46 -54 -27 -40 -3 18 55 56 87 60 -29 -47 -19 -79 -65 -111 -98 -102 -73 -198 -43 503 512 342 206 -137 -137 -148 -149 -139 -154 -137 -122 -118 -104 -133 -105 -121 -82 -36 -14 22 61 96 132 117 113 63 37 17 -29 -49 -65 -75 -44 -66 -45 -34 -4 -57 -46 -39 -40 -45 -53 -44 -53 -84 -87 -98 -86 -114 -20 -82 -62 -69 -70 -85 -69 -102 -89 -93 -81 -109 -79 -64 -46 -5 34 -21 -9 -87 -93 -130 -62 -133 -98 -114 -44 -226 -131 363 541 546 382 -30 -128 -146 -124 -141 -96 -124 -85 -92 -79 -114 -77 -96 -97 -60 -27 -16 51 50 73 78 87 65 13 -14 -40 -65 -58 -82 -29 -112 -63 -52 -58 -58 -54 -57 -31 -40 3 -26 -31 -13 -12 -9 13 -19 26 0 20 -11 20 9 14 11 20 47 120 125 143 92 56 11 7 -3 -18 -38 4 -75 -33 -197 189 784 545 314 169 -142 -78 -109 -62 -83 -42 -60 -26 -68 -32 -49 7 -39 4 14 84 84 168 168 189 168 153 116 117 54 50 25 29 16 26 -6 23 25 64 38 52 40 71 58 28 29 17 17 40 -1 22 3 15 2 4 2 14 -15 12 -46 2 -19 5 -4 13 3 38 58 122 83 82 -18 -19 -24 -40 -47 5 -44 10 -130 -83 323 705 651 269 0 -42 -68 -25 -56 -8 -13 27 4 53 8 16 14 51 39 82 121 186 208 239 216 216 132 117 90 51 33 33 5 17 -20 7 -4 23 19 30 10 46 26 48 22 29 24 36 12 51 41 53 27 51 37 18 19 34 22 33 2 37 18 39 27 40 39 53 78 123 113 83 33 22 -47 -14 -58 -39 -63 -62 -56 -162 -173 411 831 407 96 -81 -138 -86 -125 -86 -119 -82 -106 -82 -80 -83 -83 -44 -49 6 29 64 113 146 147 152 128 82 54 35 1 -9 -34 -35 -36 -35 -36 -30 -30 -33 -34 -47 -46 -32 -53 -53 -64 -63 -99 -76 -77 -105 -93 -71 -98 -75 -99 -72 -78 -93 -70 -80 -79 -71 -94 -86 -90 -90 -95 -71 -75 -61 -25 15 15 60 48 -12 -38 -75 -81 -51 -62 -86 -85 -98 -202 -220 419 850 485 183 -34 -142 -118 -155 -130 -146 -140 -124 -113 -126 -127 -121 -121 -98 -84 -46 -23 14 50 115 59 113 93 15 -4 -28 -44 -73 -65 -79 -79 -56 -67 -28 -1 -25 -1 -14 -2 2 -34 -14 -4 -9 -19 -20 5 -20 -6 -8 -19 2 -10 -9 -17 -19 -9 -44 -32 -10 -22 9 36 36 35 74 62 -29 -16 -39 -76 -35 -71 -81 -70 -67 -183 -151 677 961 445 191 -82 -109 -79 -91 -75 -85 -38 -54 -43 -21 -43 -30 -29 -18 18 47 82 120 116 132 96 101 76 50 1 -13 -42 -74 -88 -103 -79 -51 -63 -41 -40 -40 -33 -32 -29 -50 -52 -34 -44 -68 -39 -39 -50 -49 -44 -44 -54 -37 -41 -31 -20 -8 15 -4 9 15 6 17 15 -1 10 60 86 98 133 104 46 21 -6 -16 -25 -25 -23 -49 -49 -127 -158 411 848 492 154 -51 -142 -82 -116 -96 -100 -89 -90 -88 -63 -62 -41 -29 -26 1 41 90 114 174 196 207 197 166 139 97 79 44 28 30 30 0 26 23 22 20 32 47 47 59 58 37 51 15 41 51 16 17 5 -5 7 17 -8 9 18 -13 -26 4 -5 -21 -14 -11 -2 -4 -17 11 -10 -10 -3 -6 3 7 19 32 34 69 93 114 159 136 73 39 25 14 -12 -9 -8 3 -21 -105 -113 469 873 473 156 -7 -63 -29 -61 -44 -45 -34 -44 -43 -39 -37 -33 -32 -22 5 46 100 128 157 194 194 168 146 101 29 17 16 -7 -9 -9 -9 -9 -23 -13 8 19 20 19 15 12 15 12 11 11 -18 -20 15 -15 5 5 -8 3 -35 -13 0 -20 -21 -31 -53 -52 -49 -49 -49 -49 -74 -80 -74 -66 -69 -65 -41 -63 -52 -62 -75 -39 -39 4 16 50 55 30 -27 -76 -44 -55 -56 -44 -56 -72 -151 -192 198 807 716 248 2 -125 -122 -96 -96 -83 -57 -80 -96 -56 -83 -65 -49 -51 -51 -25 -22 41 82 136 111 123 117 59 20 -4 -54 -65 -62 -73 -97 -106 -110 -58 -68 -79 -59 
#avR[uV]
-3223 -3267 -2586 -2590 -1835 -1995 -1201 -1322 -568 -665 51 39 100 90 44 118 16 165 -22 128 -10 -218 78 -101 32 -48 -16 -2 18 73 97 53 109 78 86 87 156 -39 -251 -128 -109 -7 132 106 151 118 138 108 108 84 94 71 86 66 66 61 15 -69 -97 -112 -148 -85 -91 -79 -5 25 61 70 115 128 139 115 114 84 115 78 79 78 97 100 82 76 104 82 130 83 77 103 71 96 114 86 110 103 97 75 100 62 60 82 61 8 33 12 -10 -2 19 26 70 106 96 70 93 44 113 -47 -84 -120 -420 -102 128 54 95 67 54 35 25 26 52 18 36 5 3 -3 -32 -94 -97 -151 -171 -136 -128 -134 -71 -44 39 37 37 75 82 61 58 46 77 43 62 37 26 28 35 40 50 64 61 26 18 22 59 22 8 34 41 28 17 0 18 17 27 -53 -59 -62 -60 -77 -41 -22 -2 -7 39 -11 49 -24 80 -35 -220 -315 -360 -18 94 51 75 62 56 14 41 40 40 5 17 -4 28 -21 -32 -100 -107 -138 -187 -172 -168 -113 -43 -18 26 19 55 41 20 16 81 47 69 57 16 -13 30 4 16 23 14 10 28 0 19 16 47 11 6 19 61 22 29 47 52 44 58 46 50 42 29 18 81 29 -5 -26 0 -11 -12 38 75 70 82 56 85 61 56 4 -34 -364 -508 14 156 85 135 13 -54 -205 -14 -3 -65 -68 -95 -73 -80 -127 -102 -156 -188 -217 -261 -266 -237 -189 -149 -101 -57 -19 6 13 30 34 53 16 15 -3 13 18 -19 0 46 13 5 17 32 28 1 -6 28 10 25 31 15 17 3 -10 16 9 -7 23 4 -6 15 -1 8 -1 7 -10 -42 -66 -45 -76 -71 -38 7 28 58 24 46 26 49 72 62 -239 -584 -325 78 151 95 97 86 70 80 55 59 82 64 20 63 42 17 -3 -45 -128 -141 -153 -179 -144 -64 13 51 47 40 39 56 59 44 35 27 13 12 -31 -4 -19 10 -22 0 18 14 26 15 41 67 41 58 61 64 77 71 98 130 100 87 102 91 90 112 129 90 95 90 46 58 30 35 88 83 71 122 122 150 123 134 115 130 118 -358 -471 15 162 145 183 141 166 141 150 140 114 140 111 157 131 79 77 54 15 -44 -81 -82 -99 -70 19 54 99 118 132 173 164 152 187 148 178 150 138 157 143 147 134 115 129 165 137 143 150 157 164 158 117 148 169 156 143 126 194 99 319 246 183 160 139 118 102 117 113 169 192 187 194 184 189 217 213 150 -327 -402 135 229 209 229 232 231 196 160 168 183 148 148 153 137 144 131 97 11 -23 -69 -107 -68 -60 -14 68 113 107 145 148 152 181 191 159 144 168 175 149 168 163 178 152 154 151 169 183 155 185 152 162 190 188 180 192 183 175 197 192 171 188 169 166 187 141 167 161 108 95 74 78 86 124 153 146 219 176 163 210 224 186 -16 -511 -351 180 234 229 212 183 181 138 176 171 148 180 163 133 168 126 114 85 37 -5 -43 -83 -67 -35 24 100 32 160 172 161 167 150 189 188 145 168 136 156 143 86 164 139 104 157 140 152 145 136 161 153 176 157 137 146 161 170 145 145 113 131 170 136 130 169 178 165 118 100 90 76 82 77 112 152 162 163 186 178 178 193 231 116 -356 -416 115 258 189 212 176 197 128 147 175 135 146 167 128 111 117 92 69 42 -56 -93 -89 -91 -47 6 45 117 120 162 191 182 182 195 159 167 207 164 153 190 148 173 146 203 184 160 184 173 176 175 188 211 222 168 178 177 179 149 167 186 166 128 123 169 124 126 144 98 95 70 54 88 94 137 146 144 168 171 170 137 190 110 -314 -463 43 183 143 192 107 178 123 154 140 114 98 71 102 122 92 89 57 0 -59 -65 -123 -101 -56 -40 15 65 95 138 106 138 161 127 94 157 123 87 119 162 129 84 86 121 134 88 135 154 104 121 107 108 110 141 100 156 175 128 141 144 120 120 100 94 82 62 52 99 158 156 145 184 140 140 192 180 130 -294 -404 68 155 202 151 140 176 149 130 164 138 142 116 111 134 89 59 64 39 -7 -71 -80 -105 -84 -18 8 66 98 99 160 134 130 130 134 103 107 97 115 82 70 64 76 97 114 65 65 89 96 65 107 107 102 89 87 53 46 94 66 28 98 37 35 36 3 -18 -27 -43 -26 13 54 43 93 71 75 51 87 123 34 -331 -541 -105 127 71 122 53 97 78 39 26 82 49 26 17 46 18 18 -30 -64 -74 -131 -133 -156 -117 -79 -34 30 32 105 53 89 100 96 84 93 80 70 103 90 31 95 81 74 72 79 68 62 93 110 61 95 76 88 71 103 83 94 100 121 113 104 101 108 76 105 67 116 42 129 43 -30 123 9 42 14 -10 21 0 22 64 76 88 108 101 80 72 122 39 -196 -397 -352 57 153 67 80 68 102 73 53 34 38 49 39 24 28 -5 -19 3 -81 -156 -146 -175 -154 -117 -73 -35 19 42 74 64 75 79 82 58 73 91 66 44 60 55 37 27 38 48 45 45 40 46 34 6 11 -3 52 63 49 17 46 23 27 13 12 33 30 13 35 14 10 -1 46 17 29 13 34 11 21 30 14 -12 -32 -36 -8 -44 -42 30 74 46 72 78 68 53 111 13 -121 -341 -398 55 180 91 83 117 103 86 127 105 90 98 108 87 41 81 87 35 -20 -72 -97 -127 -128 -95 -51 -16 51 97 135 136 143 157 141 145 142 111 169 122 132 170 134 126 121 133 133 129 130 113 124 126 103 99 131 94 105 122 122 116 107 86 79 111 78 54 118 91 64 90 81 78 58 54 38 32 32 -27 -6 17 33 77 91 103 93 57 112 54 111 -34 -504 -312 12 65 178 111 104 117 92 98 62 67 70 41 75 66 27 29 6 -39 -91 -154 -184 -204 -208 -119 -66 -29 40 66 43 40 91 45 55 83 53 41 30 31 35 21 63 36 53 64 56 2 37 57 24 85 71 47 113 75 56 51 77 73 74 77 59 35 47 25 37 14 27 17 40 55 113 100 84 60 98 65 140 15 -304 -303 -94 17 118 89 99 82 101 77 73 45 83 52 52 59 21 0 4 -34 -97 -107 -164 -187 -169 -126 -49 -18 38 25 39 90 99 74 83 72 46 59 75 61 71 31 81 44 30 15 25 13 -11 11 0 -42 -1 -16 -23 -31 -36 -38 -39 -35 -75 -101 -88 -104 -107 -71 -11 -20 19 2 45 45 66 54 57 -147 -531 -298 52 64 145 109 74 76 107 94 67 55 78 43 50 23 24 -18 8 -64 -128 -199 -221 -233 -184 -179 -106 -36 -12 -26 7 -20 10 -22 -7 -21 -31 0 -39 -29 -21 -70 -49 -49 -20 -49 -45 -39 -22 -29 -41 -31 -36 -16 -17 -65 -9 -50 -31 -37 -34 -55 -21 -47 -62 -83 -85 -106 -91 -116 -64 -41 -22 -21 4 -7 0 -58 13 -109 -316 -432 -353 -11 71 -17 43 3 30 22 -3 -13 -1 1 3 -29 -36 -17 -46 -92 -139 -212 -212 -241 -230 -201 -131 -100 -32 -20 11 22 14 37 38 8 25 0 30 -6 23 48 -11 10 9 -12 0 10 13 19 37 8 7 8 7 13 21 5 8 15 7 10 0 -4 29 12 2 -53 -41 -65 -92 -80 -65 -35 8 32 57 14 48 52 43 53 10 -433 -589 -75 143 93 53 59 79 59 44 59 44 14 16 1 -8 -3 -17 -77 -115 -150 -204 -253 -255 -223 -225 -155 -85 -66 -13 -5 2 -3 23 11 10 -7 -2 -3 -13 28 28 23 24 0 30 30 25 58 48 75 59 54 83 37 75 74 57 53 73 93 81 85 84 72 82 53 72 71 59 65 37 27 0 -9 -14 -4 4 38 70 79 73 61 50 55 104 22 -443 -589 -85 93 105 84 49 96 79 88 58 62 75 43 42 39 4 25 -11 -60 -72 -161 -169 -172 -160 -169 -86 -25 -9 24 30 57 66 81 58 46 40 63 42 43 34 6 39 8 13 25 18 30 25 15 40 0 28 41 22 35 6 31 55 27 32 35 31 33 17 21 -18 -33 -30 -75 -79 -45 -2 18 37 42 37 19 40 62 34 -35 -535 -572 -48 41 62 67 26 42 17 23 25 5 -16 16 -7 -42 -50 -46 -71 -126 -163 -224 -269 -271 -289 -238 -164 -107 -72 -63 -66 -55 -10 -2 -18 -5 -21 -25 -36 -38 -27 -40 -62 -5 -18 -22 2 -21 -7 -21 -6 -31 -5 5 -12 -28 -7 -2 -23 -32 -20 -21 -28 -18 -45 -25 -4 -23 -19 -55 -68 -81 -91 -121 -97 -81 -40 -1 -22 -30 -29 -8 -30 -7 -58 -494 -648 -203 10 42 17 -4 10 15 -1 -28 -4 2 -9 -2 -27 -33 -42 -65 -85 -140 -202 -210 -250 -268 -216 -180 -102 -57 -36 -6 8 13 1 -7 -17 -18 -7 -17 -35 -26 -37 -16 -26 -50 -8 -27 -13 -8 -39 18 10 -19 1 -4 -17 15 20 13 21 22 5 20 16 6 32 7 12 40 6 19 33 21 5 17 13 -2 -11 -27 -38 -47 -56 -68 -61 -33 31 25 23 25 5 11 0 17 -41 -478 -657 -176 42 35 43 8 15 10 11 22 17 16 8 -3 20 -20 -38 -39 -92 -143 -191 -197 -240 -250 -204 -181 -116 -33 -24 4 5 7 29 2 4 9 -9 0 -25 -28 7 -14 -17 -18 -45 -10 -22 -36 -14 3 -10 1 -8 -4 3 -5 -8 -12 -1 3 -12 -22 -6 18 17 31 31 18 15 12 18 4 -4 20 21 10 -15 2 9 -12 -40 -46 -64 -65 -78 -43 6 -11 25 37 55 49 43 87 41 -216 -603 -318 123 141 118 138 92 105 101 81 144 115 80 114 105 53 85 73 37 29 -58 -102 -105 -125 -152 -63 -24 38 79 97 117 118 137 115 119 137 116 97 102 100 
#avL[uV]
-2923 -2968 -2334 -2397 -1685 -1853 -1079 -1317 -480 -748 108 53 42 37 38 91 -18 133 -5 150 -10 -215 43 -109 20 -28 -1 10 43 58 73 48 62 53 104 23 153 126 -31 -86 -213 -118 95 94 143 119 140 136 154 123 142 128 133 127 152 130 125 112 136 113 98 42 73 73 64 50 76 79 88 44 76 75 88 84 84 67 86 85 57 34 67 52 34 38 44 74 115 67 125 54 63 94 77 86 89 72 64 72 83 63 54 39 36 6 7 12 56 71 78 48 62 69 84 31 114 76 38 -145 -363 -133 -73 29 93 9 76 50 61 54 43 51 45 17 61 16 41 18 32 21 28 21 3 14 12 -19 -17 -17 36 4 23 8 35 4 2 -13 23 11 34 2 13 7 5 -4 16 13 41 0 0 2 20 -16 18 -26 27 -11 24 23 -2 -26 -3 -17 -36 -8 48 18 35 24 24 17 41 3 85 37 10 -90 -298 -161 -9 60 88 45 76 39 74 64 45 41 49 41 37 18 33 17 20 -10 18 0 25 8 -24 -3 -22 -16 1 -14 29 4 -3 -5 -14 -8 18 -5 1 -27 -3 -20 -3 1 6 8 2 -20 8 -1 14 5 -1 3 20 1 19 -4 5 -7 24 15 31 36 -6 -48 -7 -11 -34 -24 14 23 16 16 29 8 8 -26 36 78 82 -165 -394 -152 -97 11 47 -5 404 280 366 409 265 332 277 259 238 273 209 195 164 123 118 103 101 88 117 105 110 110 125 118 127 128 108 121 110 100 100 90 118 100 71 84 97 80 85 80 104 97 85 95 72 71 75 73 86 54 80 52 74 48 69 55 62 58 62 55 57 35 41 19 11 4 34 83 78 59 66 58 65 69 83 135 169 63 -217 -286 -129 4 124 99 106 107 85 93 93 55 74 86 65 54 66 55 51 70 47 15 28 3 -9 -12 -1 24 29 37 76 58 71 46 57 75 58 77 76 57 74 103 73 71 82 76 95 93 81 79 79 73 72 68 82 78 61 54 46 55 59 60 69 36 55 43 16 13 -9 -34 11 19 41 31 31 14 15 18 33 56 129 118 -173 -379 -290 -161 12 62 28 38 45 33 39 59 45 44 30 24 32 37 67 44 45 10 -9 20 5 -12 -19 -25 -6 17 14 32 48 36 36 -5 0 4 -13 -17 -27 -9 4 -12 -30 -12 -23 -37 -16 -11 -19 -32 -39 -50 -45 -36 -63 -26 -92 126 100 16 2 7 -13 -51 -9 8 -6 -22 7 -32 1 -20 6 75 93 -196 -408 -283 -169 -12 17 14 -26 -20 -6 -37 -34 -26 -26 -58 -29 -22 -34 -46 -31 -61 -55 -66 -85 -59 -86 -56 -61 -73 -77 -72 -61 -65 -71 -70 -42 -30 -70 -61 -73 -58 -37 -62 -58 -66 -55 -12 -43 -31 -49 -51 -43 -82 -62 -41 -46 -21 -75 -65 -47 -55 -50 -47 -53 -27 -10 -64 -90 -102 -114 -84 -47 -44 -68 -16 -44 -84 -56 -37 0 27 5 -243 -391 -244 -86 -32 -23 2 -37 -8 3 -38 -37 -29 -11 -24 -57 -50 -18 -13 -27 -48 -54 -67 -79 -39 -61 -70 -25 -53 -37 -33 -33 -19 -39 -56 -39 -32 -36 -54 -34 -30 -77 -51 -30 -7 -53 -36 -64 -39 -39 -25 3 -28 -28 -13 -35 0 -17 -31 -3 -11 -32 -28 -8 33 19 10 19 -36 -45 -53 -43 18 14 13 -3 0 -1 -1 14 31 101 142 -125 -361 -268 -115 13 46 33 29 25 30 -9 11 4 42 18 1 7 3 11 -10 -2 -1 -42 -6 -34 -43 -25 -41 -24 -8 -30 28 1 -3 10 4 -1 -5 -1 15 -6 -18 -3 4 -6 7 11 3 -7 9 -24 11 19 48 -10 -19 1 -1 -29 13 -9 -12 -1 -17 -13 -11 -49 -17 -47 -62 -27 0 13 22 6 11 -10 25 20 48 117 163 -132 -363 -244 -141 53 96 50 99 51 68 40 71 51 85 91 67 52 49 45 69 56 84 67 32 25 26 1 4 2 32 24 18 31 21 34 0 17 33 8 27 13 32 31 20 0 24 29 21 19 18 25 37 27 36 47 36 21 58 32 36 38 21 25 37 -3 19 45 61 45 41 46 45 57 87 45 153 162 -149 -315 -249 -149 40 99 103 35 97 105 76 61 46 51 57 28 68 65 53 41 41 37 31 36 16 1 7 9 22 22 19 15 51 36 25 38 36 29 10 0 44 22 41 1 13 40 36 17 13 29 32 3 32 21 31 47 28 5 39 17 -4 4 17 -24 -6 -17 -52 -26 15 -1 3 9 20 -16 23 -12 27 69 124 -154 -390 -243 -156 -40 54 -18 47 8 74 27 9 7 12 5 -1 8 7 -7 16 -14 -10 -41 -20 -37 -31 -36 -39 -30 -53 -27 -29 -48 -37 -27 -22 -39 -32 -61 -43 -18 -48 -41 -33 -47 -34 -32 -21 -43 -40 -23 -26 -33 -20 -21 -17 -16 -9 0 0 -23 2 -6 6 -5 -9 -4 5 -15 41 -51 -63 26 -53 0 -56 -46 -52 -8 36 5 21 11 7 0 25 21 80 100 -14 -225 -301 -167 -14 55 71 41 51 45 57 50 49 27 39 28 36 37 40 -5 25 22 0 5 -4 -24 -3 4 6 15 20 17 38 17 33 48 35 5 30 31 24 19 36 42 36 19 31 20 30 19 39 61 52 39 34 18 35 39 40 28 43 31 48 21 33 29 47 34 54 44 28 32 41 43 65 21 58 45 33 22 30 25 -7 23 87 66 41 59 58 48 66 52 107 145 57 -193 -322 -178 -43 60 86 23 57 58 29 23 49 35 21 24 46 0 -7 -2 -2 4 -12 -37 -27 -35 -30 -20 -11 -36 -22 -17 9 2 20 14 17 20 -11 -5 9 -19 5 2 23 0 -5 7 7 16 9 8 29 18 4 22 16 -11 -11 0 -6 11 5 -20 10 -9 -21 1 2 -10 0 -18 1 -24 -33 -57 -58 -52 -41 13 18 -24 13 -2 36 45 20 28 93 49 -125 -228 -263 -187 14 47 59 53 58 66 72 58 53 58 62 46 77 47 24 30 28 30 19 2 16 -25 -14 -13 -33 -10 15 28 11 10 22 -7 0 -17 27 19 11 19 2 21 6 7 35 63 54 36 73 -27 25 23 -4 15 36 25 38 30 32 22 52 42 24 22 -14 -33 2 -1 45 42 41 -3 57 43 36 0 99 91 -120 -254 -362 -295 -36 51 59 52 55 33 57 41 27 32 59 28 61 73 43 37 61 15 44 38 25 -2 -23 0 -8 17 29 -1 12 -15 42 10 15 13 6 9 7 7 -10 -25 4 15 -2 2 13 -15 15 1 0 -7 20 0 10 8 10 2 2 -39 -49 -55 -15 -6 -2 4 -7 12 5 -26 23 -2 119 -68 -322 -259 -261 -158 34 4 44 8 8 -15 11 -7 12 2 11 -17 17 5 -15 -31 0 -26 -15 -25 -34 -24 -34 -69 -34 -25 -23 -11 -17 -8 8 -6 -3 -48 -8 -24 -19 -18 -19 3 -11 11 9 -10 12 -2 18 3 16 4 7 21 16 15 50 17 31 23 13 13 28 13 -1 -38 -17 -3 45 35 30 41 33 0 33 21 91 117 -84 -313 -311 -196 -36 40 29 17 27 -4 11 -14 -2 -40 -8 2 7 -29 -6 -15 -21 -33 -50 -58 -47 -61 -33 -37 -51 -28 -31 -36 -11 -31 -3 -9 -9 -17 -29 -19 -19 -59 -14 -41 -21 -15 -18 -32 -16 -48 -50 -44 -24 -42 -32 -20 -24 -28 -20 -33 -5 -33 -14 -27 -35 -36 -30 -13 -37 -60 -38 -22 8 0 31 -5 14 22 23 20 20 95 125 -91 -328 -267 -144 14 77 35 54 35 67 32 57 54 52 61 66 34 45 33 35 26 17 16 17 -2 16 15 1 6 5 9 25 28 15 20 21 26 24 26 33 21 20 12 27 39 33 32 61 27 33 41 40 26 32 37 36 17 29 43 16 14 18 10 28 28 26 41 35 17 27 13 0 -25 -12 -40 -29 11 26 36 25 -1 9 34 38 45 100 154 -92 -343 -321 -184 -26 64 64 68 57 65 75 61 47 73 74 71 88 61 69 64 54 69 47 0 35 0 -26 1 8 9 18 26 15 19 30 18 30 -10 -19 -2 -16 7 -17 -6 19 -2 -6 -8 2 7 -24 15 -9 -14 3 -19 4 -8 -14 1 -8 16 8 -8 7 -17 -17 -10 -11 -18 -7 45 13 20 38 5 34 51 32 19 120 131 -240 -435 -309 -164 30 48 46 47 48 52 16 38 40 7 36 44 47 37 21 27 19 21 47 36 72 43 24 16 35 42 65 83 71 78 68 40 58 43 48 49 38 44 53 40 48 37 32 61 33 40 40 52 36 30 47 42 35 25 26 22 0 14 7 -2 18 0 -9 13 1 -18 -30 -33 -54 -17 13 24 25 13 30 34 32 41 52 99 148 -61 -312 -267 -120 17 97 64 81 64 76 81 69 64 51 48 44 39 40 31 12 2 15 -25 -22 -21 -40 -34 -53 -44 -41 -30 -25 -29 -23 3 -10 -8 -13 -7 -6 -22 -16 -36 -30 -2 -34 2 -24 -34 7 -21 -9 13 -5 -10 15 -14 -23 3 8 -14 1 5 2 5 -14 0 6 -28 4 -1 -14 -5 -5 -14 -21 -22 -19 -37 -50 -62 -91 -68 -24 -13 -34 -23 -2 -5 3 -8 15 70 106 -112 -326 -266 -138 -12 25 17 38 28 28 14 24 23 25 29 15 34 36 15 10 -3 0 -19 -25 -20 -23 -19 -17 -5 0 -14 3 3 -7 5 5 13 14 -6 -1 -1 -17 -4 0 -2 13 -3 2 32 22 -13 16 -4 0 8 -4 29 14 5 15 14 29 51 42 27 28 21 21 46 52 49 40 49 51 21 36 33 54 55 25 36 16 11 -5 -8 15 42 54 39 28 23 5 17 32 70 123 -40 -303 -378 -247 -72 34 22 26 19 12 2 -12 14 2 5 -3 10 -3 1 0 2 -1 -10 -49 -21 -15 -56 -32 -35 -36 -8 -9 -12 -13 15 20 14 -14 2 8 -5 
#avF[uV]
6146 6236 4920 4987 3521 3848 2281 2639 1048 1414 -160 -93 -142 -127 -82 -209 2 -298 27 -278 20 433 -121 211 -52 77 17 -8 -62 -131 -170 -102 -171 -132 -191 -110 -310 -87 283 214 323 126 -228 -200 -294 -237 -279 -244 -262 -208 -236 -200 -219 -194 -219 -192 -140 -42 -39 0 50 42 17 5 -59 -75 -138 -149 -203 -173 -215 -190 -203 -169 -200 -146 -166 -164 -155 -135 -149 -128 -138 -121 -174 -158 -192 -171 -197 -150 -177 -181 -188 -190 -187 -148 -164 -135 -144 -146 -115 -48 -70 -18 3 -10 -76 -97 -149 -155 -158 -139 -178 -76 -228 -28 46 266 784 235 -54 -84 -189 -77 -130 -85 -86 -81 -95 -69 -82 -23 -64 -13 -8 76 64 130 143 115 124 119 58 63 -22 -20 -73 -79 -105 -70 -93 -50 -80 -30 -85 -49 -61 -31 -48 -48 -56 -59 -77 -40 -60 -21 -60 -24 -29 -18 -60 -1 -44 10 -42 -41 -25 80 63 80 97 85 -6 3 -33 -16 -64 -6 -90 21 -165 -2 209 406 659 179 -85 -111 -164 -107 -133 -53 -115 -104 -85 -47 -67 -37 -65 2 0 82 86 149 168 173 142 104 68 21 -3 -3 -56 -27 -50 -21 -78 -42 -54 -49 -35 18 -32 22 -12 -2 -11 -11 -35 -9 -21 4 -56 -10 -21 -25 -60 -26 -50 -48 -72 -39 -64 -38 -75 -58 -61 -55 -75 18 12 37 34 35 -1 -62 -91 -87 -112 -65 -93 -35 -93 -83 -47 530 902 138 -58 -96 -182 -8 -350 -74 -351 -406 -200 -264 -181 -185 -157 -146 -107 -38 24 93 142 163 136 101 31 -4 -52 -90 -132 -132 -158 -162 -162 -138 -126 -97 -114 -108 -98 -100 -118 -98 -102 -97 -118 -109 -106 -90 -114 -106 -97 -103 -91 -91 -90 -43 -96 -61 -66 -72 -74 -48 -78 -56 -70 -54 -65 -25 0 47 34 72 36 -45 -86 -88 -124 -83 -112 -95 -133 -208 -231 176 802 612 51 -156 -220 -196 -193 -177 -165 -148 -153 -138 -138 -107 -128 -96 -84 -51 -5 57 93 138 150 141 74 -1 -50 -71 -70 -76 -133 -117 -116 -82 -85 -89 -71 -46 -72 -37 -85 -81 -74 -89 -97 -103 -110 -134 -148 -121 -137 -134 -136 -146 -153 -177 -191 -154 -133 -157 -151 -150 -181 -166 -146 -139 -107 -59 -49 4 -46 -108 -125 -103 -154 -136 -166 -142 -168 -172 -259 -237 532 850 274 -1 -158 -246 -169 -204 -187 -183 -180 -173 -186 -156 -187 -155 -111 -114 -121 -60 -1 70 91 78 65 -6 -34 -74 -111 -149 -187 -197 -201 -224 -185 -173 -150 -142 -144 -126 -119 -124 -119 -116 -134 -125 -120 -113 -140 -153 -138 -84 -109 -119 -111 -107 -62 -167 -6 -446 -347 -200 -162 -147 -105 -51 -108 -121 -163 -170 -194 -161 -186 -168 -224 -288 -243 523 811 148 -59 -196 -246 -246 -204 -175 -153 -131 -148 -121 -121 -95 -108 -122 -96 -50 20 85 125 174 153 119 101 -12 -51 -33 -67 -75 -91 -115 -120 -88 -101 -138 -104 -87 -95 -105 -140 -89 -96 -85 -114 -171 -111 -154 -102 -111 -147 -105 -118 -151 -137 -153 -122 -126 -123 -133 -119 -118 -133 -114 -156 -96 -17 6 40 5 -39 -79 -84 -129 -174 -91 -106 -172 -224 -213 10 755 742 64 -147 -197 -188 -185 -144 -130 -179 -133 -111 -150 -151 -108 -110 -76 -95 -71 -9 53 98 150 147 74 37 -30 -7 -106 -135 -127 -133 -131 -150 -131 -105 -135 -100 -101 -108 -56 -86 -87 -73 -149 -87 -115 -80 -96 -122 -127 -179 -128 -109 -133 -126 -170 -128 -113 -109 -120 -137 -108 -121 -203 -198 -175 -138 -64 -44 -22 -38 -96 -127 -165 -158 -164 -184 -176 -193 -224 -333 -258 481 778 153 -143 -203 -258 -210 -226 -154 -178 -165 -147 -151 -210 -147 -112 -125 -96 -80 -32 59 94 131 97 82 37 -20 -75 -95 -153 -160 -210 -184 -192 -170 -172 -205 -158 -152 -206 -141 -155 -142 -207 -178 -167 -195 -176 -168 -185 -163 -223 -242 -217 -168 -157 -181 -147 -137 -200 -156 -115 -121 -152 -110 -115 -95 -80 -48 -7 -27 -89 -107 -160 -153 -155 -158 -196 -190 -185 -307 -273 447 826 200 -41 -196 -289 -157 -277 -175 -222 -180 -186 -150 -157 -193 -190 -145 -138 -103 -69 2 -19 55 69 30 13 -17 -70 -98 -171 -130 -157 -193 -148 -129 -158 -140 -120 -128 -190 -143 -116 -117 -141 -135 -112 -164 -176 -123 -139 -133 -146 -138 -177 -147 -192 -197 -186 -173 -180 -158 -142 -126 -132 -79 -82 -97 -161 -203 -198 -191 -229 -198 -228 -238 -333 -293 443 719 180 -5 -243 -250 -243 -211 -247 -235 -241 -199 -189 -168 -168 -163 -157 -125 -117 -80 -34 33 49 69 67 17 -15 -75 -121 -121 -180 -149 -182 -167 -160 -141 -144 -127 -125 -82 -114 -86 -117 -98 -128 -105 -101 -107 -110 -95 -139 -110 -135 -110 -118 -101 -75 -100 -106 -45 -93 -41 -52 -11 2 36 79 69 11 -11 -58 -53 -113 -55 -98 -39 -115 -192 -158 486 931 349 29 -31 -177 -35 -145 -87 -114 -54 -92 -56 -38 -22 -45 -26 -25 37 47 88 141 175 176 154 111 70 8 -1 -52 -26 -60 -51 -59 -57 -71 -41 -38 -42 -47 -13 -46 -39 -41 -25 -45 -35 -40 -49 -70 -38 -69 -43 -67 -49 -85 -66 -85 -99 -122 -89 -106 -94 -115 -71 -96 -63 -122 -27 -170 7 94 -149 43 -41 42 57 30 8 -58 -69 -97 -99 -116 -101 -105 -93 -203 -139 211 623 654 110 -138 -122 -151 -109 -153 -118 -110 -85 -88 -76 -78 -53 -65 -32 -21 1 55 133 145 170 158 141 77 30 -25 -57 -94 -81 -114 -96 -115 -107 -109 -96 -97 -76 -85 -75 -73 -69 -75 -67 -76 -65 -70 -65 -73 -67 -63 -36 -87 -81 -84 -57 -87 -51 -71 -45 -60 -55 -63 -43 -82 -49 -64 -43 -74 -49 -70 -57 -99 -33 -80 -75 -47 -10 1 11 16 21 -45 -96 -115 -105 -130 -126 -134 -105 -219 -159 63 535 720 122 -137 -151 -169 -140 -161 -144 -157 -128 -139 -133 -130 -112 -88 -81 -80 -33 22 67 109 165 155 130 81 37 -39 -60 -112 -118 -153 -159 -161 -159 -159 -132 -158 -116 -141 -150 -140 -128 -144 -133 -127 -137 -138 -129 -134 -134 -132 -117 -135 -117 -121 -110 -111 -116 -101 -98 -85 -91 -88 -45 -96 -92 -67 -80 -81 -59 -59 -30 -5 25 26 79 48 -31 -51 -53 -105 -100 -130 -102 -133 -82 -204 -15 629 541 250 122 -192 -159 -163 -170 -151 -165 -134 -126 -124 -99 -137 -112 -104 -76 -31 9 62 123 165 201 192 144 80 42 -6 -55 -59 -68 -102 -56 -78 -75 -52 -23 -58 -51 -47 -41 -65 -58 -59 -72 -91 -66 -92 -93 -98 -57 -97 -70 -108 -90 -92 -77 -115 -103 -107 -99 -111 -77 -72 -47 -22 18 -29 -16 -85 -97 -154 -96 -142 -103 -135 -65 -239 -106 424 557 457 277 -82 -141 -159 -134 -156 -111 -130 -87 -110 -85 -112 -88 -83 -73 -47 -3 36 92 120 149 143 128 73 18 -29 -42 -68 -88 -111 -59 -125 -83 -62 -73 -81 -71 -78 -39 -71 -19 -34 -31 -23 -16 -1 4 -14 41 1 24 3 30 25 29 28 33 73 140 138 160 123 78 13 15 -12 -15 -51 -19 -89 -52 -177 215 854 557 209 94 -179 -113 -119 -85 -116 -78 -79 -47 -90 -45 -62 -5 -41 12 6 95 127 226 236 258 218 204 140 106 47 51 15 32 6 31 -1 28 35 48 48 54 40 89 68 45 31 37 35 49 10 31 23 27 19 11 10 43 -7 34 -18 20 2 31 7 33 33 70 86 145 108 119 18 6 -7 -19 -38 8 -33 37 -104 -7 401 745 665 207 -35 -23 -73 -21 -57 -17 -8 27 4 39 4 27 29 47 52 107 161 246 262 300 277 262 165 138 83 48 19 14 -2 -6 -34 0 -15 18 0 26 -4 11 25 31 11 28 17 22 2 28 12 35 16 34 24 7 3 22 12 17 -1 22 13 31 5 24 28 66 79 125 131 103 57 34 -39 -26 -72 -36 -72 -73 -64 -148 -135 525 918 343 0 -107 -130 -94 -134 -94 -112 -91 -101 -69 -68 -63 -57 -31 -28 43 80 124 187 236 237 226 209 139 84 59 8 -3 -27 -24 -39 -32 -32 -19 -21 -23 -19 -49 -49 -36 -52 -40 -63 -62 -86 -86 -82 -116 -99 -81 -115 -75 -112 -91 -87 -96 -89 -107 -100 -95 -113 -100 -109 -94 -108 -88 -86 -78 -37 -1 11 49 43 -6 -30 -75 -96 -78 -83 -95 -89 -101 -204 -176 536 932 406 90 -78 -148 -113 -164 -137 -153 -134 -124 -123 -116 -116 -110 -92 -86 -58 -4 18 91 122 172 124 169 113 24 1 -34 -48 -83 -82 -100 -88 -65 -70 -52 -22 -41 -17 -13 -21 -1 -32 -23 -12 -21 -27 -23 -16 -15 -18 -26 -25 -15 -11 -22 -40 -28 -23 -51 -39 -24 -25 -3 36 44 42 93 87 0 -11 -38 -75 -48 -71 -70 -72 -81 -155 -95 776 1007 358 122 -93 -116 -72 -89 -65 -76 -41 -43 -24 -24 -28 -1 2 8 49 98 143 202 222 234 217 194 139 91 37 21 1 -28 -60 -76 -50 -35 -36 -17 -12 -11 -10 -4 9 -34 -29 -14 -35 -40 -26 -19 -34 -21 -30 -36 -34 -13 -27 -22 -3 9 21 7 21 21 27 25 13 10 17 73 99 114 146 139 83 57 15 -11 -8 -4 -2 -33 -21 -91 -89 556 960 470 110 -59 -115 -59 -92 -80 -74 -52 -65 -67 -42 -45 -17 -5 1 34 73 138 187 235 272 290 256 214 155 101 78 36 17 16 22 4 28 27 20 24 41 48 54 52 56 53 42 25 37 43 31 3 0 5 4 15 2 0 3 -17 -30 -7 -6 -26 -18 -11 -18 -6 -19 -11 -11 -17 -18 -16 0 -3 8 25 31 65 88 109 147 136 86 46 3 -2 -20 -20 -8 -3 -16 -87 -64 591 984 442 96 -23 -69 -26 -53 -39 -39 -36 -41 -40 -33 -26 -35 -13 2 23 81 146 192 216 266 271 228 200 134 39 25 10 -8 -11 -22 -8 -9 -22 -5 6 27 29 10 19 18 20 31 13 19 4 -8 9 -6 3 8 -4 1 -23 -5 6 -14 -17 -17 -29 -36 -45 -45 -52 -52 -65 -68 -62 -58 -54 -47 -41 -58 -44 -39 -57 -34 -23 23 35 69 74 62 1 -60 -27 -54 -61 -61 -67 -76 -157 -165 257 907 696 124 -69 -152 -161 -118 -125 -113 -83 -132 -129 -82 -119 -101 -64 -81 -75 -38 -31 60 112 155 146 168 119 56 -3 -42 -89 -107 -106 -123 -130 -140 -151 -102 -100 -111 -95 
