ADC Sampling rate (Hz):
100
Fragment duration (sec):
21
Number of samples exported by each lead:
2099

#I[uV]
-4235 -3690 -3376 -2921 -2544 -1994 -1623 -1118 -790 -246 97 130 204 178 110 101 95 38 23 -8 -4 10 15 -9 25 10 3 21 0 16 27 33 10 21 30 18 3 49 25 25 29 -17 -2 29 14 0 10 19 10 27 9 23 49 85 62 17 -21 14 27 -25 20 16 11 133 163 230 36 -236 -121 -5 0 20 22 37 47 22 36 69 35 53 39 65 67 98 139 129 148 194 165 203 198 127 130 86 31 38 52 7 33 34 26 28 25 -4 41 53 25 45 33 4 39 12 16 20 48 51 -1 53 69 20 53 47 21 64 44 58 31 45 46 -2 73 88 50 10 -3 -31 16 67 -24 23 31 150 208 46 -152 -194 -51 -46 8 -20 -69 -23 -29 -25 -50 -51 -14 -51 -56 15 9 -31 5 64 76 114 118 94 34 31 13 -55 -31 -66 -48 -30 -67 -62 -52 -76 -75 -46 -50 -54 -36 -51 -46 -54 -77 -34 -28 -60 -73 -63 -63 -54 -61 -96 -52 -34 -58 -56 -41 -47 -62 -31 -33 -19 -20 -69 -39 -42 -46 -73 -85 -65 -17 66 191 92 -168 -228 -97 -76 -55 -40 -54 -39 -49 -70 -33 -56 -34 -59 -57 -22 -9 -3 22 50 53 113 97 123 79 11 -8 -42 -31 -74 -45 -61 -56 -49 -63 -64 -68 -59 -40 -88 -65 -47 -33 -36 -53 -52 -58 -66 -46 -82 -39 -37 -62 -35 -62 -78 -68 -29 -53 -19 -50 -65 -74 -97 -62 -95 -63 -81 -88 -13 -8 107 22 -266 -202 -79 -66 -52 -84 -64 -123 -112 -62 -34 -46 -56 -43 -56 -32 -23 -3 49 60 99 117 101 97 75 -8 -17 -2 -63 -61 -70 -74 -52 -107 -79 -49 -82 -92 -71 -67 -39 -40 -82 -50 -44 -50 -23 -72 -58 -45 -53 -12 -18 -12 -47 -22 -26 -1 28 -52 -66 -34 -59 -58 -20 -64 -64 12 43 39 26 -142 -181 -105 -50 -42 -40 -26 -37 -37 -56 -23 0 -25 -28 -19 -21 18 29 45 97 138 175 138 112 124 32 -4 18 29 5 -47 -23 -31 -43 -31 -38 -26 -11 -15 -21 -13 -47 -39 -5 -68 -38 8 -28 -58 -90 -33 -34 -40 -44 -90 -57 -45 -51 -63 -50 -59 -2 16 -7 -31 -54 -47 -54 -53 -46 -28 17 81 184 64 -146 -192 -86 -21 -58 -57 -16 -25 -40 -35 -3 -17 -35 -52 -32 -24 -52 36 78 68 68 55 96 63 67 27 -39 -33 -13 -49 -67 -56 -94 -58 -49 -55 -48 -34 -28 -34 -56 -27 -31 -13 14 -13 0 -4 1 13 19 9 30 18 -4 10 43 23 -28 9 16 18 21 15 43 21 -4 6 2 5 1 4 -18 29 69 29 230 22 -196 -17 -55 -49 -45 -32 -6 -26 -43 -42 -28 -41 -36 -42 -61 -39 -24 26 14 62 104 73 82 65 100 34 -37 -3 -35 -41 -54 -46 -59 -38 -10 -49 -46 -48 -53 -38 -56 -40 -28 -40 -57 -25 -26 -33 -56 -24 -5 -43 -33 -42 -72 -40 -62 -28 -34 -23 -19 -3 18 0 33 25 -21 0 -20 -8 -10 73 -1 34 78 15 74 -27 -202 -116 -28 -40 -52 -57 -19 -37 -58 -33 -52 34 -12 1 1 76 30 47 83 112 129 104 169 85 85 42 -14 -10 -31 -49 -26 -36 -29 -39 -61 -42 -30 0 -34 -16 30 -3 8 12 22 25 11 4 48 -1 11 -3 11 46 11 -16 -13 -6 2 -8 1 -1 10 -33 -50 -42 -74 11 -55 -58 2 -82 144 66 -167 -60 -163 -86 -29 -81 -75 -66 -49 -81 -30 -53 -46 -54 -53 -32 -13 5 9 53 83 99 113 21 73 19 27 -38 -27 -67 -60 -64 -50 -63 -43 -87 13 29 5 31 2 74 47 80 51 37 63 29 15 -21 30 40 30 12 14 0 16 36 -9 11 6 16 8 46 35 40 87 25 -15 10 1 12 -29 21 8 31 58 120 215 -5 -198 -49 -35 -9 -5 -22 14 19 -2 20 -4 -14 4 28 26 10 33 52 56 136 116 138 162 127 99 59 19 6 0 38 12 20 16 47 46 46 62 65 50 58 72 76 51 47 69 52 66 23 14 32 48 13 31 39 26 27 -21 35 6 -22 33 33 36 6 29 28 38 18 -8 -6 -25 27 3 -17 5 5 57 150 211 16 -178 -149 -14 -8 -25 -12 20 33 -6 -24 3 12 21 48 19 42 9 94 85 146 159 151 213 161 200 152 93 50 35 57 57 37 60 39 32 29 19 16 18 24 23 28 31 33 15 35 13 -21 32 -9 -5 23 15 -2 -19 4 -6 -23 8 31 33 28 24 60 84 93 96 62 37 35 18 39 17 8 52 130 224 144 -56 -195 -92 -6 -26 -4 -12 10 14 -25 -36 -16 21 12 5 27 34 35 1 68 100 105 132 120 140 102 31 -10 -9 -33 -16 -24 -31 -27 -25 17 -20 -39 -20 -25 -19 -22 -49 -9 13 -36 -31 11 -27 24 35 34 38 18 20 26 49 41 32 38 25 30 47 45 46 -4 2 23 12 18 -37 2 47 30 164 287 74 -127 -90 -2 23 19 -26 46 66 40 32 37 32 38 71 68 10 48 93 136 132 137 204 173 167 149 90 90 59 67 53 4 37 47 68 17 37 38 37 39 24 21 31 54 58 37 21 25 -2 20 80 51 28 -18 44 82 41 58 53 55 36 43 41 49 58 74 86 54 55 25 27 -11 30 0 12 93 121 193 201 -12 -167 -97 -11 8 6 9 33 20 0 -4 0 -6 14 5 32 27 42 45 67 129 127 129 162 154 83 47 21 17 19 24 1 -29 -22 17 7 32 8 -10 8 0 6 18 39 14 12 21 12 -2 -22 27 37 -10 -7 9 0 -2 -7 0 11 -1 5 46 41 3 -24 -9 -4 -4 -34 6 -20 -23 27 110 203 47 -212 -173 -45 -16 -38 -43 2 23 13 -14 -37 -7 2 -9 2 6 15 51 59 74 128 159 158 163 96 12 9 6 -38 -50 -39 -30 -50 -48 -51 -75 -45 -63 -74 -54 -39 -32 -47 -60 -65 -82 -30 -45 -69 -71 -57 -52 -66 -48 -71 -66 -43 -46 -39 -11 -14 -23 -85 -86 -77 -86 -109 -96 -106 -89 12 101 68 -170 -304 -203 -144 -140 -124 -89 -98 -114 -73 -80 -76 -53 -83 -67 -63 -42 -6 -15 49 62 79 107 86 83 41 -42 -72 -54 -49 -53 -74 -77 -106 -124 -69 -71 -95 -52 -67 -127 -93 -92 -51 -61 -73 -84 -102 -80 -110 -98 -100 -118 -97 -103 -83 -117 -109 -90 -98 -76 -44 -62 -39 -35 -88 -73 -86 -94 -88 -118 -95 -94 -89 76 186 -37 -267 -273 -101 -118 -119 -114 -121 -101 -62 -71 -124 -99 -115 -80 -44 -69 -56 -36 -32 -8 32 15 28 41 -16 -13 -59 -119 -105 -114 -140 -118 -139 -158 -107 -130 -129 -136 -184 -123 -157 -167 -149 -170 -147 -166 -184 -193 -162 -187 -191 -172 -201 -193 -200 -189 -180 -190 -123 -178 -182 -120 -107 -124 -155 -205 -134 -136 -161 -164 -160 -154 -139 -56 39 2 -188 -284 -227 -164 -146 -128 -171 -128 -128 -152 -116 -146 -142 -131 -148 -109 -104 -78 -58 -30 -10 30 68 40 0 9 -34 -77 -90 -88 -90 -98 -100 -113 -123 -62 -71 -101 -30 -77 -119 -91 -105 -30 -39 -102 -57 -50 -91 -91 -93 -127 -76 -73 -107 -88 -78 -103 -71 -82 -75 -65 -140 -121 -115 -137 -162 -153 -168 -135 -56 15 -29 -112 -278 -272 -183 -125 -110 -88 -89 -77 -98 -103 -96 -101 -78 -62 -75 -81 -44 7 37 63 122 125 108 130 76 60 25 2 1 -46 -47 6 -23 -12 -16 -15 -14 -16 28 35 19 9 -22 23 55 20 65 40 23 42 29 11 23 26 56 73 5 -1 53 28 44 79 103 93 46 55 40 60 49 26 52 36 97 186 164 178 -94 -83 54 34 63 101 91 86 103 85 97 133 129 111 80 140 158 157 184 202 250 295 318 307 242 188 138 142 107 95 117 125 106 90 92 95 105 120 102 105 130 101 97 107 107 134 114 81 90 110 113 97 113 110 92 100 109 144 116 102 131 136 138 166 166 125 126 99 111 119 114 86 153 212 338 302 -5 -79 88 102 127 124 98 107 133 128 96 125 152 122 107 102 139 144 152 198 211 231 280 261 207 194 148 92 93 87 60 101 65 67 81 101 140 87 84 77 54 109 92 72 133 103 67 99 96 98 85 82 68 51 67 49 95 123 84 70 76 94 84 107 78 46 59 53 37 34 39 25 99 168 214 172 -111 -164 7 62 45 27 50 35 27 53 73 15 31 85 59 61 109 89 100 144 162 208 177 175 169 120 106 74 24 38 1 16 46 0 22 5 36 58 12 23 26 26 22 52 36 34 5 20 4 4 51 -3 12 61 12 35 39 42 54 43 46 48 22 43 -8 -23 10 0 28 -7 49 175 166 67 -193 -206 -14 30 0 29 36 16 22 32 56 42 45 53 46 54 50 97 103 145 188 203 234 190 151 147 70 35 48 35 24 16 33 22 -20 23 31 -29 7 -15 -19 18 11 -28 -39 -27 -23 -32 -47 -12 -4 -70 -49 -29 -33 -51 -18 7 -55 -8 11 -24 -15 2 36 -7 -47 -63 -36 -62 -64 -27 -72 -43 28 134 77 -239 -205 -120 -96 -87 -82 -88 -69 -74 -92 -41 -83 -99 -60 -71 -62 -46 -65 -22 20 73 75 76 79 33 15 -8 -7 -73 -99 -58 -65 -55 -58 -80 -76 -40 -22 -41 -84 -25 -7 -28 5 16 5 39 11 9 -23 -19 14 -19 11 -29 -7 -6 -51 -3 -23 -25 -35 -45 -18 -52 -29 4 -20 -1 -68 -59 -59 -87 -46 -78 -90 -17 9 127 215 -60 -245 -126 -76 -53 -28 -28 -35 -49 -15 6 -4 -14 8 -2 -8 31 13 8 50 81 116 146 127 96 86 54 9 -23 -48 -52 -36 -20 -27 -68 -45 -47 -52 -36 -27 -19 -31 -42 -41 -49 -43 -21 -34 -72 -55 -53 -38 -26 -42 -53 -31 -68 -53 -46 -57 -33 -36 -39 -29 9 29 27 42 66 71 83 21 28 45 27 26 30 27 11 81 183 276 89 -104 -54 27 12 48 42 47 58 33 52 60 29 35 13 47 49 26 60 86 96 173 170 149 196 165 100 98 31 -4 -8 4 19 -9 4 29 6 9 -11 -9 49 24 12 0 24 16 20 38 26 45 36 53 65 38 30 32 33 20 24 -15 33 -1 0 39 8 25 41 -36 -36 -29 -80 -62 -85 -78 -56 -43 73 109 97 -119 -212 -95 -6 -10 -43 -36 -39 -29 -49 -31 -58 -68 -32 1 -43 -51 -9 4 72 124 126 165 166 93 88 43 -23 -46 -48 -66 -55 -53 -98 -108 -80 -56 -73 -34 -16 
#II[uV]
25941 22813 20753 17629 15563 12538 10441 7211 5261 2054 115 140 486 372 343 281 251 116 87 29 24 13 13 10 12 -9 -8 -2 -9 -17 21 8 8 -39 -70 -50 -40 -15 -52 -69 -55 -87 -86 -62 -79 -111 -89 -92 -71 -54 -27 3 6 -13 -49 -209 -171 -126 -117 -172 -215 -164 -246 -255 72 871 720 -8 -169 -208 -157 -161 -92 -109 -51 -77 -128 -94 -46 -1 -28 -68 -24 70 100 108 152 206 268 251 240 87 74 26 -29 -52 -41 -118 -72 -64 -83 -87 -59 -95 -63 -62 -94 -99 -64 -99 -59 -91 -77 -30 -21 -28 -59 -15 -31 -10 27 -53 -33 25 16 44 30 61 143 134 135 72 14 -31 6 -80 3 3 -83 -100 -179 -119 613 909 106 -194 -132 -258 -54 -245 -182 -199 -169 -163 -180 -130 -144 -152 -167 -152 -119 -141 -63 27 48 154 161 150 83 64 -5 -128 -89 -138 -91 -145 -130 -106 -104 -123 -131 -101 -89 -97 -74 -77 -66 -99 -107 -119 -93 -114 -102 -119 -93 -109 -122 -162 -106 -131 -114 -104 -49 -46 -38 -34 -35 -84 -111 -190 -130 -188 -151 -220 -170 -213 -285 -214 454 892 111 -164 -149 -249 -85 -196 -109 -151 -137 -142 -129 -133 -127 -134 -101 -82 -72 -27 13 55 80 177 173 193 120 38 -4 -72 -75 -176 -139 -174 -155 -167 -153 -179 -184 -192 -186 -212 -135 -168 -136 -147 -158 -155 -134 -161 -135 -172 -111 -160 -124 -117 -94 -91 -47 4 -22 -56 -59 -135 -139 -194 -109 -192 -85 -171 -146 -246 84 797 395 79 41 -183 -64 -172 -119 -176 -181 -204 -150 -119 -130 -128 -103 -129 -91 -92 -30 27 111 155 178 155 177 105 101 -92 48 -148 -307 -110 -235 -132 -191 -119 -66 -89 -76 -73 -36 -43 -44 -50 -8 -11 7 19 -1 -8 29 18 59 66 123 133 163 137 136 99 16 -28 -21 -61 -23 -25 -27 -110 -53 -66 467 1010 282 -17 -53 -126 -38 -114 -58 -84 -42 -77 -37 0 0 -3 20 38 99 109 165 238 319 377 350 342 331 256 157 168 115 90 49 49 62 50 52 71 65 74 79 50 63 63 19 54 -16 31 56 8 -16 -18 22 -1 2 -20 -47 -39 -4 30 52 57 71 78 25 -30 -18 -83 -31 -94 1 -65 29 -120 111 670 437 344 169 -89 30 -79 -31 -42 -6 -47 11 18 -5 66 -71 116 -115 -310 51 -133 50 7 51 114 37 80 -7 -64 -96 -146 -167 -207 -156 -229 -157 -164 -152 -156 -141 -133 -133 -166 -119 -114 -106 -91 -83 -88 -56 -61 -34 -62 -35 -41 -30 -71 -39 -13 -8 -50 9 35 45 92 40 63 19 -64 -29 -91 -60 -114 -68 -157 -4 -236 111 839 69 -76 48 -249 -104 -225 -176 -175 -196 -211 -193 -205 -188 -189 -178 -226 -160 -167 -75 -72 17 90 67 150 72 110 11 -70 -56 -131 -110 -150 -116 -168 -107 -93 -122 -160 -130 -128 -120 -146 -129 -158 -143 -184 -145 -161 -165 -177 -161 -192 -186 -183 -189 -200 -192 -201 -158 -167 -118 -111 -101 -22 -97 -97 -122 -187 -144 -193 -173 -203 -97 -196 -42 -304 102 857 94 -80 -89 -263 -113 -227 -175 -208 -150 -191 -137 -167 -96 -176 -96 -108 -35 -109 5 -16 64 115 82 157 54 49 9 -71 -59 -145 -100 -181 -136 -189 -104 -169 -177 -171 -131 -180 -128 -123 -80 -115 -70 -79 -51 -66 -20 -45 -46 -72 -35 -47 -3 -65 -9 -6 28 55 27 71 35 -39 -25 -81 -25 -119 7 -109 -32 -219 -27 444 333 353 102 -195 -96 -174 -146 -213 -155 -180 -150 -155 -137 -133 -111 -170 -66 -119 -31 -42 84 64 160 144 114 127 97 38 31 -88 -34 -112 -80 -86 -61 -79 -23 -7 47 -2 69 -8 89 10 78 28 52 61 83 -22 -2 -13 -9 -31 -10 -44 -38 -64 -17 -42 9 -76 28 14 41 81 62 53 -15 -85 -60 -112 -79 -160 -36 -112 -74 -179 264 926 369 -30 -82 -147 -76 -94 -97 -79 -35 -57 -28 -54 -29 -20 10 6 23 21 79 92 205 234 230 287 224 186 98 17 9 -42 -12 -48 -20 -46 -31 -46 -50 -11 6 -5 25 16 15 -6 -17 -14 -12 -15 -17 -41 -23 -24 -43 -22 -29 -35 -48 -49 16 -67 -23 9 36 65 38 122 81 56 -29 -21 -34 -75 1 -50 -16 -101 -94 -215 99 869 544 -59 -203 -219 -156 -239 -209 -170 -92 -155 -147 -142 -101 -91 -121 -138 -57 -128 -8 -9 106 118 151 199 180 199 104 24 -18 -44 -38 -80 -73 -62 -70 -95 -105 -95 -56 -79 -48 -68 -89 -68 -80 -91 -69 -94 -113 -136 -147 -144 -123 -148 -145 -148 -150 -161 -154 -146 -125 -150 -90 -44 -10 11 -63 -73 -148 -227 -185 -241 -185 -222 -172 -263 -288 136 773 603 -73 -226 -285 -233 -190 -189 -153 -159 -176 -223 -189 -154 -129 -111 -100 -153 -85 -91 -22 42 70 125 127 127 28 -84 -145 -166 -187 -175 -173 -182 -219 -217 -167 -191 -186 -187 -173 -183 -192 -198 -177 -164 -234 -210 -147 -175 -138 -151 -124 -124 -102 -121 -176 -117 -85 -83 -22 -22 25 52 -79 -146 -160 -113 -109 -123 -84 -164 -85 -142 -215 -95 669 859 63 -136 -235 -231 -188 -231 -165 -153 -168 -223 -194 -172 -161 -152 -126 -163 -95 -79 -26 2 50 133 136 134 116 33 -9 -54 -137 -154 -173 -110 -74 -73 -94 -111 -75 -75 -65 -71 -61 -57 -40 -52 -42 -62 -47 -76 -88 -86 -121 -118 -80 -64 -54 -92 -69 -84 -143 -93 -29 8 21 54 50 -52 -119 -198 -155 -221 -118 -37 26 -119 -80 -156 388 965 531 -71 -172 -76 -121 -111 -73 -39 -36 -37 -59 -89 -61 -10 -11 -44 14 40 9 116 220 231 284 317 249 149 84 14 -8 -41 -111 -141 -151 -106 -79 -111 -85 -100 -91 -101 -125 -102 -93 -87 -106 -146 -117 -126 -111 -141 -153 -81 -72 -134 -133 -97 -80 -71 -35 11 21 68 68 -24 -69 -109 -108 -91 -109 -107 -102 -193 -218 -243 3 773 780 -24 -199 -212 -280 -189 -216 -132 -137 -132 -229 -195 -136 -148 -140 -128 -109 -88 -19 -5 -26 84 206 206 211 106 -43 -60 -61 -118 -134 -123 -127 -135 -119 -139 -134 -109 -126 -104 -99 -86 -81 -83 -88 -92 -102 -63 -106 -43 -62 -86 -71 -99 -126 -94 -42 4 9 31 47 -12 -105 -190 -193 -151 -146 -164 -156 -224 -286 -307 263 839 409 -119 -196 -229 -235 -203 -166 -155 -189 -94 -90 -81 -58 -65 -35 -34 -15 47 36 149 187 226 276 305 254 195 118 89 40 23 23 0 -30 -40 -98 7 -38 -34 -21 -11 -47 -43 -49 -22 -60 -47 -70 -106 -77 -95 -103 -80 -101 -123 -127 -94 -117 -85 -44 -46 78 295 77 128 2 8 -19 7 -15 -19 -96 -32 -122 -188 12 689 824 -13 -230 -97 -194 -70 -165 -97 -116 -85 -139 -143 -115 -106 -102 -67 -78 -81 -50 -9 13 104 73 39 115 -50 -17 -146 -161 -204 -243 -209 -224 -191 -201 -153 -199 -175 -182 -203 -161 -155 -186 -131 -167 -174 -203 -178 -197 -136 -169 -184 -163 -178 -186 -159 -205 -170 -187 -97 -101 -80 -44 -55 -119 -183 -248 -189 -226 -238 -256 -222 -259 -339 -312 289 823 330 -109 -263 -353 -276 -326 -312 -328 -281 -279 -244 -257 -228 -229 -213 -210 -170 -156 -92 -59 30 54 136 131 131 67 11 -90 -105 -143 -135 -144 -137 -181 -157 -159 -173 -215 -139 -213 -180 -219 -192 -140 -138 -188 -174 -184 -204 -212 -213 -243 -218 -229 -218 -181 -118 -172 -88 -101 -141 -188 -253 -256 -228 -256 -220 -288 -218 -339 -298 -39 540 675 36 -234 -249 -276 -191 -265 -194 -228 -172 -204 -176 -184 -167 -182 -153 -153 -130 -90 5 16 125 128 159 133 77 22 -23 -110 -103 -169 -162 -133 -157 -162 -175 -180 -143 -157 -97 -81 -84 -88 -80 -74 -21 -68 -31 -58 -40 -51 -44 -74 -26 -59 -31 -15 -53 -45 50 46 105 122 125 30 -15 -45 -69 -73 -41 -94 -54 -122 -135 -27 568 975 179 -127 -60 -152 -91 -112 -75 -125 -54 -72 -75 -53 -33 -51 -53 -28 4 30 105 146 235 316 363 344 291 210 139 96 67 17 48 9 3 18 -2 24 27 51 48 37 63 48 58 31 24 27 16 -1 -1 -4 -8 -12 -11 4 -25 -23 -17 22 69 41 98 108 89 95 -23 -1 -18 -32 -54 -27 -16 -39 -59 -51 623 1122 502 57 43 -8 33 19 31 28 55 69 65 92 144 110 100 134 142 184 227 284 339 378 438 423 380 302 219 148 111 101 56 74 50 60 47 59 126 51 73 65 52 83 82 65 101 81 80 103 103 94 104 100 110 77 131 90 132 187 182 213 250 291 280 230 176 125 145 138 135 122 138 112 59 77 719 1198 590 194 113 49 83 29 76 44 60 71 79 59 67 84 92 77 129 119 157 189 261 335 386 354 346 308 242 182 127 98 110 87 107 75 111 99 135 163 141 139 154 155 141 170 154 140 128 132 129 141 142 75 113 145 107 143 172 181 221 205 186 102 68 51 10 4 30 15 47 -3 -61 29 771 1117 361 116 48 -38 34 -18 53 17 46 46 76 102 123 114 118 117 150 186 217 283 356 393 445 423 394 331 254 189 168 145 116 107 114 93 76 82 100 44 92 79 55 94 97 33 48 31 11 40 25 38 46 8 -4 3 27 8 68 82 56 133 188 196 181 168 129 64 24 -5 21 -5 -29 26 -7 -95 -29 692 1089 373 37 -39 -92 -63 -99 -93 -65 -92 -95 -81 -87 -105 -73 -106 -77 -65 -39 -5 66 137 191 204 226 151 84 24 -15 -116 -131 -136 -132 -134 -132 -141 -153 -102 -65 -93 -89 -68 -53 -50 -13 -14 -15 17 -1 -5 -60 -20 -19 -54 -13 -59 -43 -70 -78 -60 -80 -66 -77 -50 -12 -12 18 3 -36 -102 -169 -183 -182 -203 -175 -196 -208 -230 -233 115 862 639 -92 -193 -231 -199 -133 -162 -136 -150 -63 -59 -46 -46 7 -15 -11 27 37 55 138 192 283 326 340 298 246 178 108 57 16 -15 -41 -22 -37 -69 -57 -74 -93 -80 -84 -66 -63 -99 -86 -108 -110 -100 -113 -123 -150 -139 -139 -125 -126 -149 -135 -134 -109 -108 -105 -69 -89 -92 -56 23 76 86 124 141 95 70 -2 -20 10 -9 -32 -12 -13 -76 -71 231 1008 912 159 -20 -80 -79 -59 -86 -35 -58 -57 -56 -42 -75 -63 -74 -27 -32 -33 -22 60 93 160 202 222 249 190 106 93 -12 -72 -81 -56 -59 -72 -58 -44 -56 -48 -64 -52 -5 -40 -27 -17 -30 -32 0 -7 20 32 18 41 41 -1 0 -19 -17 -16 -47 -73 -35 -22 -8 31 35 16 -54 -160 -151 -155 -196 -178 -227 -207 -207 -307 -247 339 927 443 17 -137 -213 -164 -214 -182 -195 -174 -175 -154 -154 -161 -148 -102 -133 -141 -63 -23 55 139 194 249 265 211 185 55 -33 -68 -96 -144 -132 -140 -175 -171 -144 -118 -135 -97 -96 
#III[uV]
30177 26503 24129 20551 18107 14533 12064 8329 6051 2301 18 9 281 194 232 180 156 78 63 37 28 2 -1 20 -13 -20 -12 -24 -8 -33 -6 -24 -1 -61 -100 -68 -44 -64 -78 -94 -84 -70 -83 -91 -94 -111 -100 -112 -82 -82 -36 -20 -42 -99 -111 -227 -149 -141 -144 -146 -236 -180 -257 -389 -90 641 684 228 -48 -203 -156 -182 -115 -146 -98 -100 -164 -163 -82 -55 -67 -134 -92 -28 -39 -21 3 12 102 47 41 -39 -56 -60 -60 -90 -93 -126 -106 -99 -109 -116 -85 -90 -105 -115 -120 -144 -97 -103 -99 -103 -93 -51 -69 -79 -58 -69 -101 -30 -25 -100 -54 -39 -28 -13 0 15 97 137 61 -16 -35 -41 9 -48 -12 -63 -58 -124 -211 -270 404 862 258 0 -81 -212 -62 -224 -112 -176 -140 -137 -130 -78 -130 -101 -111 -168 -128 -109 -69 -37 -28 39 42 56 49 32 -19 -72 -58 -72 -42 -115 -62 -44 -51 -46 -56 -55 -39 -42 -37 -26 -19 -44 -30 -84 -64 -53 -28 -55 -30 -55 -61 -65 -54 -96 -56 -47 -7 1 23 -2 -2 -64 -90 -120 -90 -145 -105 -147 -85 -148 -268 -281 262 799 279 63 -51 -172 -29 -155 -54 -111 -88 -72 -96 -77 -93 -75 -44 -60 -62 -24 -8 4 27 64 76 70 41 26 4 -29 -44 -101 -93 -112 -99 -117 -89 -114 -116 -133 -145 -123 -69 -120 -103 -111 -104 -103 -75 -95 -89 -89 -72 -122 -61 -81 -31 -13 21 33 31 -36 -8 -70 -65 -97 -46 -96 -22 -89 -57 -232 93 690 373 346 243 -104 2 -119 -35 -112 -58 -92 -87 -84 -83 -72 -60 -72 -59 -68 -27 -21 51 55 61 53 80 29 109 -74 51 -84 -245 -39 -161 -79 -83 -39 -17 -7 15 -2 31 -4 -3 32 41 33 57 43 71 50 74 71 72 85 136 180 186 164 138 70 69 38 12 -2 34 -4 37 -45 -65 -109 427 983 424 164 51 -76 3 -74 -31 -46 -5 -21 -14 -1 25 24 39 59 80 80 120 140 181 202 211 230 207 224 161 149 85 84 96 73 94 93 83 110 91 86 94 72 76 111 59 60 51 69 47 37 41 72 56 32 43 23 42 17 41 81 115 108 131 81 8 -22 12 -29 15 -39 55 -18 57 -138 30 485 372 490 362 -3 51 -21 26 -26 19 -6 46 21 11 101 -18 149 -90 -257 15 -212 -18 -60 -4 18 -25 12 -35 -24 -63 -132 -118 -140 -99 -134 -99 -114 -96 -107 -107 -105 -99 -109 -92 -82 -93 -106 -69 -89 -52 -62 -48 -82 -44 -72 -49 -66 -50 -56 -32 -22 0 19 27 70 24 19 -1 -59 -36 -93 -66 -116 -73 -139 -33 -306 82 609 46 119 65 -193 -54 -179 -143 -169 -170 -168 -151 -177 -147 -153 -135 -165 -120 -142 -101 -86 -44 -13 -5 67 7 10 -23 -32 -52 -96 -68 -95 -69 -108 -69 -82 -73 -113 -81 -74 -82 -89 -89 -129 -103 -126 -119 -135 -131 -120 -137 -186 -143 -149 -146 -128 -152 -138 -129 -132 -94 -91 -98 -41 -98 -131 -148 -165 -143 -173 -164 -192 -170 -195 -76 -382 87 783 121 122 27 -234 -72 -174 -118 -189 -112 -133 -103 -115 -130 -163 -97 -109 -112 -139 -42 -99 -47 -13 -22 -11 -30 -36 -32 -57 -48 -114 -51 -155 -99 -159 -64 -107 -134 -140 -131 -146 -111 -153 -77 -123 -82 -102 -76 -78 -25 -93 -45 -83 -31 -59 -49 -76 7 7 34 53 35 69 36 -49 7 -31 16 -44 -4 -53 26 -221 55 300 267 521 163 -31 -9 -145 -65 -137 -89 -131 -69 -125 -83 -86 -56 -117 -34 -105 -37 -52 31 -19 60 30 93 53 77 11 70 -60 32 -51 -16 -35 1 -36 63 -21 17 -8 37 -10 15 -36 -2 -22 15 -2 53 -38 18 -44 -50 -62 -23 -59 -37 -80 -54 -32 -2 -82 11 5 -4 46 22 -33 -41 -69 -70 -113 -92 -131 -57 -121 -106 -238 144 710 374 168 -32 -112 -67 -88 -74 -94 -55 -54 -48 -50 -15 -24 -18 -20 12 -12 27 35 69 118 91 125 96 86 38 -2 2 -43 -50 -61 -41 -62 -78 -93 -96 -73 -58 -55 -32 -56 -61 -58 -65 -83 -65 -82 -40 -56 -55 -73 -56 -54 -68 -62 -75 -28 -19 -74 -1 -24 2 28 32 93 53 18 -47 -13 -27 -50 -26 -54 0 -107 -100 -272 -50 658 527 119 -53 -204 -148 -213 -196 -191 -125 -149 -122 -146 -113 -113 -170 -157 -99 -137 -102 -95 -39 -41 0 -14 18 -1 -47 -69 -69 -80 -95 -138 -111 -122 -109 -127 -135 -115 -73 -98 -72 -92 -118 -100 -114 -107 -105 -107 -91 -168 -137 -138 -147 -163 -142 -129 -154 -154 -130 -155 -157 -183 -119 -68 -70 -72 -157 -170 -210 -265 -221 -260 -224 -239 -180 -316 -419 -87 628 660 122 -133 -278 -206 -185 -176 -164 -174 -151 -187 -172 -176 -141 -117 -128 -188 -121 -93 -90 -58 -34 -6 7 -13 -74 -115 -134 -157 -153 -158 -149 -151 -192 -192 -185 -170 -147 -167 -148 -163 -169 -148 -167 -177 -198 -179 -159 -147 -162 -186 -159 -162 -120 -141 -202 -166 -127 -116 -61 -47 -5 5 -124 -193 -156 -116 -133 -135 -102 -126 -88 -190 -245 -259 381 784 191 -45 -233 -255 -208 -205 -212 -219 -209 -255 -232 -205 -199 -224 -194 -173 -143 -173 -162 -129 -87 -70 -36 -32 -33 -56 -100 -114 -204 -208 -177 -148 -121 -141 -112 -149 -114 -112 -105 -96 -83 -88 -94 -110 -79 -84 -73 -73 -109 -167 -172 -147 -62 -109 -137 -133 -127 -137 -199 -129 -72 -33 -28 -3 -24 -138 -174 -253 -180 -249 -107 -68 27 -131 -173 -278 194 764 543 95 -75 -65 -130 -117 -82 -73 -57 -38 -54 -89 -55 -25 -17 -77 -13 -1 -36 49 91 104 154 154 95 66 37 -7 -25 -60 -136 -143 -121 -83 -97 -118 -118 -109 -81 -109 -124 -109 -112 -127 -121 -158 -138 -139 -109 -119 -180 -119 -62 -126 -142 -97 -78 -64 -35 0 23 63 22 -65 -73 -85 -99 -86 -105 -73 -109 -173 -195 -271 -106 570 733 187 -25 -167 -263 -150 -173 -135 -160 -145 -214 -157 -128 -150 -130 -130 -115 -103 -70 -64 -101 -44 46 48 48 9 -56 -69 -67 -80 -83 -83 -96 -85 -71 -87 -58 -64 -62 -29 -45 -47 -49 -35 -27 -27 -19 -32 -60 25 9 -28 -18 -33 -77 -22 23 47 56 70 59 1 -82 -104 -106 -74 -60 -55 -60 -118 -197 -319 161 770 579 184 7 -85 -95 -79 -76 -56 -75 -20 -9 -4 -5 18 31 28 27 53 52 100 124 146 168 218 171 153 160 162 94 73 77 74 47 65 25 77 33 60 30 56 80 50 42 29 0 26 14 -3 3 14 -5 20 16 -25 -23 -11 0 24 46 52 154 339 139 167 38 96 54 94 78 69 21 62 -27 -99 -63 503 862 253 42 3 -76 49 -50 23 -14 -23 -68 -18 -16 9 -21 -23 -9 -25 -14 23 21 72 57 10 74 -33 -4 -86 -41 -98 -128 -68 -105 -52 -43 -46 -69 -45 -45 -19 -38 1 -19 18 2 -27 -36 5 -4 25 17 7 8 23 6 40 -16 10 2 26 76 102 75 52 4 -28 -43 -54 -90 -77 -91 -62 -105 -199 -256 250 821 518 175 -36 -188 -130 -198 -140 -199 -153 -127 -127 -110 -86 -98 -65 -100 -66 -77 -34 -29 41 23 68 90 130 58 45 -13 -15 -55 -44 -46 -36 -68 -34 -97 -101 -114 -108 -136 -60 -127 -87 -110 -99 -86 -116 -133 -113 -121 -119 -116 -142 -155 -111 -93 -40 -68 -17 -18 -65 -123 -112 -134 -112 -119 -57 -134 -50 -203 -242 -55 570 788 315 37 -65 -151 -81 -176 -104 -150 -73 -100 -80 -83 -88 -120 -77 -71 -86 -97 -32 -46 2 3 50 2 1 -38 -49 -112 -105 -122 -114 -140 -134 -150 -158 -164 -129 -141 -126 -117 -103 -98 -58 -98 -76 -88 -97 -98 -63 -93 -73 -86 -49 -86 -87 -88 -59 -44 -2 18 61 42 21 -62 -62 -101 -110 -133 -90 -120 -107 -158 -233 -213 403 797 274 -44 -115 -187 -155 -213 -166 -212 -158 -158 -172 -187 -163 -163 -134 -168 -154 -127 -78 -55 -15 20 45 37 48 21 1 -45 -39 -78 -69 -116 -102 -72 -94 -71 -77 -69 -54 -67 -67 -53 -38 -76 -83 -107 -98 -82 -91 -115 -121 -110 -125 -105 -118 -123 -127 -122 -46 -60 -32 -27 -49 -71 -190 -126 -144 -132 -166 -146 -131 -126 -213 -263 285 819 507 137 -44 -111 -94 -105 -67 -79 -78 -58 -31 -33 -7 -12 -7 31 3 39 74 85 128 147 158 161 172 107 70 56 18 13 -3 -27 -14 -6 -34 -41 -13 -36 -10 -11 -1 -25 -9 -7 -32 -22 12 3 6 -4 18 18 42 25 63 40 37 63 97 143 174 197 196 122 97 78 85 85 97 87 99 87 -39 -90 504 1025 702 358 106 -13 38 1 25 8 33 17 5 43 36 0 32 15 19 29 56 45 99 127 208 179 177 187 136 107 103 60 108 70 61 74 88 94 98 104 129 115 128 129 118 117 117 106 122 111 124 137 91 78 101 84 94 108 133 139 166 162 140 54 45 8 19 28 19 15 19 4 -111 -146 605 1050 554 322 63 -68 34 -48 16 1 23 13 19 59 77 60 71 62 99 88 114 138 167 189 210 233 242 183 184 153 119 109 92 90 80 70 97 58 68 73 84 95 75 75 86 62 87 59 35 73 73 50 51 78 45 33 60 59 87 75 112 141 177 221 197 165 93 71 71 58 57 56 34 53 65 -51 -58 557 1011 613 243 80 3 24 -17 -5 4 -18 -3 -39 -3 -5 -13 -35 -15 -18 25 17 45 63 115 127 147 117 68 32 -7 -42 -31 -77 -66 -78 -74 -60 -77 -62 -43 -51 -5 -43 -45 -21 -19 -30 -20 -21 -12 -15 -37 0 -34 -34 -25 -30 -36 -63 -26 -56 -57 -41 -42 -4 6 40 47 0 -15 -101 -100 -124 -123 -115 -128 -117 -118 -213 -242 -11 647 699 153 -66 -155 -146 -104 -133 -100 -101 -48 -66 -41 -31 -1 -13 -2 -3 23 47 88 111 167 179 213 201 159 123 99 80 64 36 -4 -1 -10 0 -12 -27 -41 -44 -57 -46 -31 -56 -44 -58 -66 -78 -78 -50 -95 -86 -101 -98 -83 -95 -103 -66 -56 -61 -47 -36 -53 -53 -26 14 46 58 81 74 23 -13 -23 -48 -35 -36 -59 -43 -41 -88 -153 48 731 822 263 33 -108 -91 -108 -129 -82 -116 -91 -109 -102 -104 -98 -88 -74 -81 -59 -83 -25 -2 -13 32 72 53 24 5 -4 -43 -67 -72 -61 -78 -62 -62 -73 -62 -57 -53 -43 -54 -64 -40 -16 -54 -48 -19 -45 -6 -12 -17 -11 -23 -39 -29 -51 -51 -37 -71 -57 -69 -21 -8 -8 27 -9 -95 -123 -115 -126 -115 -116 -142 -129 -151 -264 -320 229 829 563 230 -41 -206 -153 -171 -145 -155 -145 -126 -122 -95 -93 -116 -104 -90 -89 -53 -27 -16 14 67 83 99 118 96 11 -10 -22 -48 -78 -76 -86 -76 -62 -63 -61 -62 -62 -80 
#avR[uV]
-10852 -9561 -8688 -7353 -6509 -5271 -4408 -3046 -2235 -903 -106 -135 -345 -275 -226 -191 -173 -77 -55 -10 -9 -11 -14 0 -19 0 2 -9 4 0 -24 -21 -9 8 20 15 18 -17 13 22 13 52 44 16 32 55 39 36 30 13 8 -13 -27 -36 -6 96 96 56 45 99 97 74 117 60 -118 -551 -378 122 145 106 79 70 35 36 2 27 46 12 5 -25 -5 1 -21 -84 -119 -119 -150 -200 -216 -227 -219 -107 -102 -56 -1 7 -5 55 19 15 28 29 16 49 11 4 34 27 15 47 10 39 30 5 -13 -11 30 -19 -18 -5 -40 3 6 -44 -30 -51 -30 -53 -94 -66 -104 -80 -32 10 -1 56 -9 -35 54 38 74 -15 -410 -477 22 194 92 152 22 133 126 111 99 94 115 91 79 101 112 68 55 86 29 -45 -62 -134 -139 -122 -58 -48 -4 92 60 102 70 87 99 84 78 99 103 73 69 76 55 64 56 76 92 77 60 87 88 91 78 81 92 129 79 82 86 80 45 47 50 33 34 52 66 130 85 115 98 147 128 139 151 74 -323 -492 28 196 123 162 70 118 81 95 93 106 81 95 80 96 79 52 41 15 -18 -53 -66 -145 -135 -158 -100 -24 6 57 53 125 92 118 105 108 108 121 126 125 113 150 100 107 85 91 105 103 96 114 90 127 75 98 93 76 78 84 57 12 38 38 55 100 107 146 86 144 74 126 117 129 -38 -452 -208 93 80 131 65 112 102 120 152 158 106 76 88 92 73 93 62 57 17 -38 -86 -127 -148 -128 -137 -90 -46 55 -22 105 184 90 155 92 149 99 58 86 84 72 52 41 42 66 29 27 21 1 37 33 7 17 -23 -24 -55 -42 -70 -55 -67 -63 17 47 28 60 40 22 46 87 20 11 -253 -518 -70 99 79 88 40 77 42 60 40 66 30 0 13 15 0 -8 -58 -69 -105 -167 -229 -276 -244 -227 -228 -144 -76 -93 -72 -48 0 -13 -15 -3 -10 -16 -19 -31 -31 -14 -25 -8 10 -24 42 3 -32 10 37 54 5 17 18 32 68 48 25 10 5 -3 -6 -37 -20 18 24 69 39 74 26 56 0 51 -96 -427 -251 -98 11 88 -4 69 44 29 16 43 12 -7 11 -15 61 -41 69 181 -43 27 -59 -37 -53 -105 -50 -73 -9 52 65 80 108 137 106 162 108 106 103 102 87 80 84 111 73 72 60 38 48 43 30 29 10 21 12 5 6 37 14 -14 -7 39 -9 -26 -31 -57 -28 -53 -20 34 11 44 27 56 31 88 -12 83 -70 -534 -45 136 -15 152 76 135 104 91 111 127 118 117 114 112 110 143 99 96 24 29 -40 -97 -70 -116 -68 -105 -23 53 29 83 76 102 81 114 72 51 85 103 89 90 79 101 84 93 91 121 85 93 99 116 93 99 114 108 115 136 116 131 93 101 70 65 52 2 48 32 48 104 72 107 90 106 12 98 3 112 -59 -465 -33 141 102 145 76 139 116 114 94 125 85 110 30 94 47 53 -20 39 -26 -33 -88 -122 -93 -163 -69 -67 -26 42 35 88 75 103 86 109 71 115 110 100 66 107 72 46 42 53 28 28 12 27 7 -1 23 30 19 18 -21 26 12 9 -11 -28 -9 -36 -17 14 29 65 34 97 -9 82 45 108 54 -294 -200 -92 -20 179 91 101 114 144 111 114 115 93 95 90 83 112 49 66 13 16 -68 -73 -129 -128 -68 -100 -58 -32 3 58 51 86 72 68 62 61 55 -3 -38 -1 -50 3 -82 -29 -79 -40 -45 -62 -56 3 11 -8 -15 0 -1 15 19 23 -9 26 -10 35 -22 -11 -43 -58 -51 -70 -5 50 24 55 33 94 7 52 21 60 -192 -570 -182 114 66 91 43 49 60 32 8 30 4 29 21 8 -19 -16 -17 -27 -66 -74 -170 -175 -184 -224 -176 -143 -78 -18 -8 20 -13 18 0 14 -8 0 1 -25 -36 -22 -42 -44 -46 -22 -14 -27 -20 -25 -2 13 -4 -11 15 -4 -5 4 10 35 -26 30 23 -21 -34 -50 -22 -76 -54 -47 5 14 20 50 -14 23 17 48 44 78 -124 -540 -280 118 176 117 82 132 111 74 29 80 86 69 44 34 36 59 7 59 -42 -37 -126 -139 -151 -206 -170 -200 -128 -58 -15 4 -9 11 17 0 15 31 37 37 20 30 12 22 30 18 23 38 17 40 67 52 78 74 49 66 73 84 73 84 89 69 47 58 30 9 -25 -48 -15 -11 43 95 74 111 72 102 82 105 79 -180 -458 -273 134 159 145 130 97 101 71 72 100 129 102 66 58 52 36 59 24 45 -23 -71 -88 -129 -124 -134 -65 26 77 87 110 96 98 107 123 121 75 105 112 103 99 101 107 123 93 75 135 121 67 101 57 58 44 43 42 50 74 34 21 25 -8 -1 -27 -50 16 50 82 55 42 55 33 100 41 47 92 -34 -478 -466 32 113 119 104 84 128 59 43 63 95 78 69 61 40 28 76 23 -6 -55 -67 -94 -169 -155 -150 -132 -61 -40 -2 35 50 84 36 13 2 38 37 18 18 12 23 19 12 -6 -3 2 20 11 39 34 2 34 44 49 9 -14 25 5 15 43 28 -6 -24 -35 -56 -62 -17 32 71 64 97 64 3 -13 53 -6 17 -291 -583 -259 119 134 44 56 52 32 2 7 18 32 44 33 -2 2 6 -21 -41 -27 -91 -174 -179 -207 -239 -202 -116 -66 -18 -4 11 43 70 90 64 31 52 26 46 51 46 63 47 37 23 46 67 47 56 57 81 63 21 41 70 62 49 41 39 17 -11 -10 -36 -57 -8 33 66 59 48 57 71 48 107 120 108 -56 -488 -413 118 186 129 148 113 130 65 56 59 121 116 71 72 75 63 51 36 -15 -26 -24 -106 -182 -182 -187 -101 15 25 27 78 92 81 79 93 83 95 104 77 94 89 76 63 57 65 74 79 92 46 76 56 67 71 62 82 87 82 54 19 18 4 -18 13 64 138 140 114 116 137 126 165 188 147 -182 -453 -119 211 199 187 188 163 127 127 152 84 85 78 56 74 51 49 29 -20 -10 -99 -125 -152 -191 -195 -168 -118 -37 -8 6 12 14 37 53 73 111 31 55 65 37 39 87 68 70 36 60 60 77 104 79 103 101 90 109 110 115 88 117 97 67 72 -1 -125 -7 -44 16 39 46 39 55 54 107 63 108 138 -44 -438 -393 140 251 99 156 95 140 109 109 73 105 134 107 111 91 55 73 69 43 20 -2 -68 -44 -33 -78 33 15 103 140 155 178 175 171 165 180 130 164 152 159 194 142 156 176 140 168 161 184 181 195 149 178 188 167 189 189 180 197 175 188 110 139 131 82 81 121 169 226 162 181 199 210 191 207 239 184 -164 -413 -71 196 245 258 211 227 242 228 205 215 180 202 185 180 180 159 137 117 75 45 -10 -42 -102 -85 -66 -38 11 83 97 116 112 121 118 147 140 111 122 158 85 145 150 155 149 85 89 145 115 117 147 152 153 185 147 151 162 135 98 138 79 92 108 127 197 189 171 196 191 221 193 237 177 11 -255 -281 120 253 216 201 151 176 142 152 135 154 136 142 123 122 114 117 87 41 -21 -40 -124 -126 -134 -132 -77 -41 -1 53 50 108 105 63 90 87 95 98 79 87 34 23 32 39 51 25 -16 24 -16 9 8 4 7 31 1 16 -12 -28 23 23 -52 -37 -75 -100 -114 -62 -15 -4 14 6 -4 34 0 42 18 -79 -366 -576 -42 105 2 58 13 5 -7 19 -24 -6 -10 -40 -48 -30 -13 -55 -81 -94 -145 -174 -242 -306 -340 -326 -267 -199 -139 -119 -87 -56 -83 -67 -54 -54 -45 -59 -66 -86 -75 -71 -96 -74 -77 -69 -66 -81 -65 -40 -44 -53 -52 -42 -50 -57 -33 -38 -45 -83 -92 -71 -115 -122 -114 -131 -71 -62 -53 -33 -28 -46 -49 -23 -47 -80 -480 -712 -248 10 -66 -46 -80 -72 -65 -68 -94 -98 -80 -108 -148 -116 -103 -118 -140 -164 -190 -241 -275 -305 -359 -342 -294 -248 -183 -120 -102 -94 -58 -88 -58 -64 -64 -80 -133 -69 -78 -71 -53 -96 -87 -68 -117 -92 -74 -101 -100 -96 -95 -91 -89 -64 -99 -69 -113 -155 -133 -141 -163 -193 -182 -169 -127 -85 -102 -95 -86 -78 -89 -69 -79 -122 -467 -685 -239 -14 -60 -55 -64 -28 -63 -40 -44 -62 -76 -37 -49 -85 -76 -69 -119 -104 -129 -166 -212 -271 -281 -264 -258 -214 -174 -128 -75 -68 -55 -52 -77 -37 -66 -52 -86 -110 -77 -81 -90 -91 -82 -111 -95 -87 -66 -76 -66 -73 -97 -36 -63 -103 -60 -89 -105 -112 -138 -124 -116 -75 -45 -47 0 9 -20 -8 -38 5 6 -102 -469 -592 -84 44 -17 4 -17 -5 -44 -16 -34 -39 -66 -72 -84 -84 -82 -86 -100 -142 -160 -214 -272 -298 -340 -306 -272 -239 -162 -112 -108 -90 -70 -61 -73 -57 -27 -52 -65 -7 -49 -32 -18 -56 -54 -2 -4 -2 5 -4 11 -13 -20 31 26 13 3 21 -25 -45 0 -62 -99 -86 -83 -85 -83 -28 11 34 7 33 47 0 39 69 0 -413 -583 -67 84 80 94 75 91 91 67 83 94 61 85 102 66 89 69 55 52 13 -43 -105 -133 -140 -153 -92 -50 -8 11 95 115 97 99 95 95 111 114 71 44 67 87 46 30 39 3 -1 5 -28 -5 -2 41 20 2 37 1 44 25 38 64 32 52 46 56 48 15 32 5 -3 28 51 118 121 121 145 110 137 149 124 111 -121 -539 -289 168 159 154 126 81 95 86 100 39 26 25 30 -7 8 9 -29 -25 -32 -94 -136 -200 -236 -234 -197 -166 -116 -58 -17 15 33 39 21 32 69 51 60 73 58 55 43 47 71 63 79 76 60 74 97 103 96 89 75 84 101 83 101 81 77 81 51 62 65 42 -16 -52 -57 -83 -104 -83 -77 -9 -4 -27 -8 2 -9 -7 32 -5 -207 -642 -501 -27 37 26 33 5 22 -5 0 12 1 -9 23 13 30 -10 -8 3 -18 -73 -95 -167 -186 -186 -222 -177 -103 -96 -9 38 44 26 19 40 27 7 24 19 38 31 -21 8 7 8 2 8 -10 -15 -23 -38 -27 -47 -53 -18 -15 -6 -8 -1 11 44 1 12 4 -35 -22 -20 6 98 94 92 138 120 156 142 132 175 86 -224 -512 -162 97 116 110 87 129 109 117 101 112 92 106 115 90 50 88 96 36 9 -64 -131 -160 -207 -215 -152 -136 -49 28 57 72 105 93 97 136 140 112 87 104 66 56 
#avL[uV]
-17206 -15097 -13752 -11736 -10325 -8264 -6844 -4724 -3421 -1274 39 60 -38 -8 -61 -39 -30 -20 -19 -22 -16 3 8 -15 19 15 8 22 4 24 17 29 6 41 65 43 23 57 52 59 56 26 40 60 54 56 55 66 46 54 23 22 45 92 86 122 63 78 85 60 128 98 134 261 126 -205 -324 -232 -36 99 77 101 68 92 73 61 100 116 58 54 53 99 79 63 89 75 72 90 31 77 78 83 93 73 46 64 73 67 70 67 68 72 55 43 73 84 72 94 65 54 69 57 55 36 59 65 28 61 85 25 39 73 37 51 36 35 16 14 -25 -70 5 52 43 25 -6 8 14 65 16 73 121 210 -98 -408 -205 -97 14 82 35 101 21 76 55 55 40 13 58 25 27 92 68 39 37 51 52 37 38 19 -7 0 16 8 13 3 -3 42 -2 -8 0 -14 -9 4 -5 -6 0 -12 -13 -5 -23 24 17 -3 -22 -4 -16 0 0 -15 0 31 -1 -4 -16 -24 -42 -14 -15 22 34 25 25 51 29 36 0 41 125 173 -35 -353 -224 -146 -22 47 -12 57 0 36 19 1 31 10 29 8 -6 19 26 10 15 23 12 24 10 26 18 -7 -6 -6 6 13 24 25 21 34 13 25 23 37 52 17 2 36 34 37 25 25 8 14 21 3 16 42 0 22 -15 -32 -45 -31 -42 8 -21 2 -4 0 -8 0 -20 3 -15 109 -51 -291 -175 -306 -222 12 -34 33 -24 24 -32 -9 12 25 18 7 8 7 13 22 12 35 4 22 27 23 8 22 -58 28 -26 10 92 -15 43 13 -11 -19 -16 -37 -53 -34 -49 -17 -18 -57 -45 -38 -54 -33 -71 -54 -59 -62 -42 -52 -74 -114 -104 -95 -70 -21 -60 -52 -23 -28 -46 -7 -51 -9 38 76 -194 -478 -283 -173 -78 12 -23 17 2 4 -16 -17 -4 0 -25 -26 -29 -40 -31 -25 -37 -21 -21 -13 -36 -59 -41 -95 -83 -65 -27 -39 -72 -48 -62 -68 -57 -74 -58 -48 -54 -46 -44 -79 -49 -33 -59 -54 -19 -33 -50 -81 -45 -33 -41 -34 -66 -37 -43 -66 -89 -79 -95 -41 3 7 -22 -12 -31 -7 -54 -14 -43 78 25 -150 -153 -318 -277 -41 -36 -18 -41 4 -22 -16 -41 -12 -14 -68 -16 -91 33 102 10 145 43 64 29 39 44 27 31 -7 14 59 34 36 21 19 20 32 20 29 36 38 32 26 32 25 39 60 28 44 24 31 31 51 27 51 33 31 30 50 28 -2 4 -1 -4 -24 -4 11 11 27 21 47 35 59 38 60 31 188 -26 -189 -12 -158 -41 69 2 66 55 81 71 62 54 74 53 58 46 51 40 58 63 50 53 59 39 7 28 44 29 -2 24 30 13 20 11 24 15 36 12 33 16 10 22 16 24 50 31 34 47 54 49 31 56 90 50 57 52 28 55 37 50 48 35 35 47 30 49 82 86 71 71 76 77 90 122 97 55 230 -35 -354 -74 -162 -71 103 16 60 30 84 37 37 35 31 82 75 49 55 94 84 44 91 79 71 63 90 57 60 37 21 18 41 0 64 31 64 12 23 46 54 65 56 47 91 37 66 47 62 51 45 15 71 22 47 14 35 47 44 -11 -10 -20 -25 -22 -33 -18 30 -20 -9 -29 -15 7 0 -42 112 -68 -77 -100 -344 -112 -65 -38 58 -8 31 11 41 -6 47 15 20 1 31 0 45 21 30 10 51 19 41 -35 9 -29 8 -54 16 -50 -4 -24 -7 -32 -3 -75 17 5 7 -3 6 29 42 41 37 11 33 -12 26 -19 37 45 46 18 36 18 48 45 11 6 44 2 1 25 -5 8 60 33 27 40 57 52 51 39 65 68 148 -11 -247 -189 -183 -8 38 28 41 26 54 37 25 34 23 0 14 23 23 -1 23 12 10 33 -1 23 18 15 6 10 10 1 22 44 36 31 39 62 69 71 67 61 53 45 64 68 55 56 76 58 74 31 35 43 60 34 43 53 44 51 3 27 40 -10 29 15 3 -12 -32 -12 9 32 2 10 12 27 28 -8 56 53 164 100 -223 -255 -148 -47 94 69 93 91 106 79 71 48 75 63 67 109 88 70 73 98 90 93 100 75 114 71 101 99 81 59 58 76 98 74 91 74 79 82 67 45 58 48 58 73 65 74 61 70 60 34 100 64 66 85 89 70 54 79 74 53 81 94 108 74 46 65 78 125 133 136 151 128 139 132 128 94 184 274 155 -242 -358 -158 20 135 89 90 81 87 94 62 75 78 99 77 61 78 111 78 47 79 79 70 69 56 76 88 73 62 74 59 71 62 60 82 83 101 75 54 73 61 71 73 49 78 95 80 73 85 60 93 110 97 100 69 80 114 107 84 74 50 36 17 20 84 119 76 59 78 74 60 44 45 119 137 212 -47 -354 -159 -22 115 139 113 89 129 142 125 143 135 118 119 147 131 92 95 133 149 130 112 137 105 99 91 73 95 87 135 131 91 93 84 104 64 93 76 75 72 60 52 60 74 84 58 52 49 35 65 123 112 88 21 77 110 87 92 95 127 82 57 37 38 31 49 112 114 154 103 138 48 49 -13 72 133 199 0 -281 -278 -131 -11 26 69 62 46 53 39 19 25 44 24 20 11 55 20 22 40 9 18 11 -12 3 29 8 4 14 21 39 80 72 45 30 57 62 75 59 35 58 61 57 65 83 68 85 80 76 53 48 103 78 26 59 75 48 37 28 17 6 -12 -28 11 53 38 30 44 40 50 19 57 76 85 149 108 -183 -342 -199 -73 61 123 56 64 68 91 79 99 60 60 76 60 66 61 59 60 61 87 86 56 55 57 43 34 39 37 21 16 21 32 17 11 18 -8 9 0 -22 -4 3 8 -6 -16 -18 -31 1 7 -47 -40 -14 -17 -16 14 -24 -45 -45 -51 -55 -35 -7 29 9 10 -1 -12 -27 -17 6 53 165 -29 -350 -375 -244 -105 -29 -22 -22 -6 -20 -19 -26 -35 -36 -24 -51 -49 -46 -35 -30 -34 -25 -30 -33 -30 -65 -43 -55 -101 -117 -74 -61 -65 -74 -62 -85 -75 -73 -52 -78 -41 -62 -104 -72 -67 -40 -31 -50 -49 -49 -42 -62 -46 -60 -67 -36 -40 -36 -58 -66 -68 -75 -115 -192 -100 -103 -37 -92 -63 -90 -86 -79 -69 -78 -33 4 69 -158 -450 -260 -157 -52 -20 -84 -32 -72 -43 -19 -1 -53 -41 -62 -29 -10 -30 -15 -11 -27 -15 -20 -20 8 -16 8 -4 13 -38 -3 6 -36 -6 -43 -57 -30 -30 -41 -45 -82 -42 -79 -73 -84 -86 -60 -65 -95 -94 -94 -102 -99 -90 -112 -99 -120 -86 -95 -96 -74 -127 -142 -98 -80 -64 -63 -80 -40 -23 -41 -36 -48 -24 30 99 -105 -409 -353 -230 -95 12 -7 34 -15 35 12 -12 5 -18 -28 -16 -41 -4 -19 0 -12 0 -25 3 0 -25 -64 -24 -40 -31 -37 -16 -22 -25 -31 -22 -44 17 14 6 39 29 -29 18 -9 39 29 -7 29 41 11 14 13 -5 32 41 2 2 -19 -17 -26 -31 -5 29 -14 6 -1 -8 -52 -9 -59 33 93 35 -300 -450 -297 -155 -58 12 -14 44 7 36 -12 -1 -7 -9 5 29 0 -4 20 52 35 54 59 60 29 64 37 49 37 57 53 38 33 73 55 68 70 74 57 62 77 76 61 54 18 60 65 54 81 69 43 68 51 48 36 56 71 81 32 21 28 4 -8 18 40 77 54 78 75 96 70 73 80 97 165 200 -119 -309 -184 -19 84 111 109 157 129 149 131 122 134 160 146 137 107 154 156 142 131 129 133 137 136 135 97 83 68 93 73 86 93 120 104 81 93 83 91 94 78 86 98 77 68 92 95 120 106 82 91 113 117 104 119 108 105 111 118 133 81 81 81 81 94 119 178 125 135 115 139 133 123 106 183 237 26 -258 -256 -108 66 107 111 114 83 93 106 93 63 79 80 67 57 35 67 52 39 56 41 41 60 50 17 43 38 18 37 36 32 64 40 36 58 71 77 62 47 44 27 67 50 39 83 63 27 47 45 51 33 32 13 13 1 4 29 29 -6 -36 -48 -51 -56 -7 -9 -15 -13 -15 -29 -26 -29 -31 69 129 -144 -426 -406 -261 -49 37 3 13 12 13 -3 18 34 -13 -2 42 13 23 45 29 22 49 31 40 -15 -2 -3 -33 -15 -16 -39 -11 -53 -26 -7 -37 -33 -44 -30 -23 -58 -46 -50 -51 -48 -32 -40 -36 -58 -45 -59 -66 -20 -40 -44 -11 -41 -36 -47 -48 -55 -59 -47 -2 -11 17 -13 -25 -4 -7 4 -6 80 161 -219 -491 -373 -264 -39 49 -17 38 9 7 0 9 18 -8 -15 -3 -12 -3 -24 4 -5 3 10 6 11 -21 -45 -18 -56 -59 -35 -36 -34 -37 -23 -24 -59 -17 -18 -51 -38 -55 -47 -28 -37 -45 -63 -43 -29 -53 -60 -31 -28 -74 -47 -31 -47 -55 -53 -34 -84 -74 -82 -123 -106 -81 -28 -39 -59 -60 -47 -59 -49 -40 -68 3 43 -211 -467 -426 -224 -100 -50 -56 -32 -41 -37 -28 -44 -1 -39 -46 -23 -18 -23 -13 -45 -19 -12 5 -20 -25 -33 -41 -26 -20 0 -15 -33 9 0 11 7 -9 0 10 10 5 -39 8 19 -3 12 23 12 30 11 12 6 -9 24 7 18 0 14 28 -12 26 17 7 3 -20 -12 -46 -38 2 -2 49 16 32 31 14 41 19 14 98 125 69 -216 -380 -199 -29 39 46 37 52 32 25 16 36 18 8 5 5 -2 17 -4 -19 -19 -15 -25 -16 -42 -52 -36 -34 -45 -51 -56 -44 -16 -9 -8 -34 -16 -10 -5 3 15 13 0 6 1 4 11 28 22 -10 19 16 31 35 20 20 35 0 1 7 -4 1 8 7 -1 -2 -8 -15 -19 -3 23 48 22 38 40 32 42 37 34 50 117 67 -227 -366 -183 -43 68 52 78 85 64 87 62 81 81 66 67 50 60 65 43 71 55 49 93 69 38 71 70 47 51 37 31 31 32 48 26 33 51 34 33 20 16 51 44 26 8 39 32 19 42 16 28 27 32 44 39 29 41 42 28 47 20 51 10 4 24 -9 17 68 43 39 48 17 26 28 25 47 110 196 -60 -366 -341 -221 -26 99 71 63 54 57 58 38 45 18 12 41 53 23 18 21 15 44 54 29 41 33 -12 -3 15 -6 -11 0 6 10 16 -11 -23 -8 2 -5 14 32 
#avF[uV]
28059 24658 22441 19090 16835 13535 11252 7770 5656 2178 67 74 383 283 288 231 203 97 75 33 26 8 5 15 0 -15 -10 -13 -9 -25 7 -8 3 -50 -85 -59 -42 -39 -65 -81 -70 -78 -85 -76 -86 -111 -95 -102 -76 -68 -31 -8 -18 -56 -80 -218 -160 -134 -130 -159 -225 -172 -251 -322 -8 756 702 109 -109 -206 -157 -171 -103 -128 -75 -89 -146 -128 -64 -28 -47 -101 -58 20 30 43 78 109 185 149 141 24 8 -17 -44 -71 -67 -122 -89 -82 -96 -101 -72 -92 -84 -89 -107 -121 -80 -101 -79 -97 -85 -41 -45 -54 -58 -42 -66 -20 1 -77 -44 -6 -5 15 14 38 120 136 98 28 -10 -36 7 -64 -4 -30 -70 -112 -195 -194 509 886 182 -96 -106 -235 -58 -235 -147 -187 -154 -150 -155 -104 -137 -126 -139 -160 -124 -125 -66 -5 10 96 101 103 66 48 -12 -100 -73 -105 -67 -130 -96 -75 -78 -85 -93 -78 -64 -69 -55 -51 -43 -71 -69 -101 -78 -84 -65 -87 -62 -82 -91 -113 -80 -113 -85 -75 -28 -22 -7 -18 -18 -74 -100 -155 -110 -167 -128 -183 -128 -181 -276 -248 358 845 195 -50 -100 -210 -57 -175 -82 -131 -112 -107 -113 -105 -110 -105 -72 -71 -67 -25 2 29 53 120 125 132 81 32 0 -51 -60 -138 -116 -143 -127 -142 -121 -146 -150 -163 -165 -168 -102 -144 -119 -129 -131 -129 -105 -128 -112 -131 -92 -141 -93 -99 -63 -52 -12 18 4 -46 -34 -102 -102 -145 -78 -144 -53 -130 -102 -239 89 744 384 213 142 -143 -31 -146 -77 -144 -119 -148 -119 -101 -106 -100 -82 -100 -75 -80 -29 2 81 105 120 104 128 67 105 -83 49 -116 -276 -74 -198 -106 -137 -79 -41 -48 -30 -38 -2 -23 -23 -8 16 11 32 31 34 20 51 45 65 76 129 156 174 150 137 84 42 5 -4 -31 5 -15 5 -77 -59 -87 447 997 353 73 0 -101 -17 -94 -45 -65 -24 -49 -25 -1 12 10 30 48 90 94 143 189 250 289 280 286 269 240 159 159 100 87 72 61 78 71 67 90 78 80 86 61 69 87 39 57 17 50 52 23 12 26 39 15 23 1 -2 -10 18 56 83 82 101 79 16 -26 -2 -56 -8 -66 28 -41 43 -129 70 577 405 417 265 -46 41 -50 -2 -34 6 -27 28 20 3 84 -45 133 -102 -284 33 -172 15 -26 23 66 5 46 -21 -44 -79 -139 -143 -173 -128 -181 -128 -139 -124 -132 -124 -119 -116 -138 -106 -98 -100 -98 -76 -88 -54 -61 -41 -72 -40 -56 -40 -68 -45 -35 -20 -36 4 27 36 81 32 41 9 -61 -33 -92 -63 -115 -70 -148 -19 -271 97 724 58 21 56 -221 -79 -202 -160 -172 -183 -189 -172 -191 -167 -171 -157 -195 -140 -154 -88 -79 -13 38 31 108 39 60 -5 -51 -54 -113 -89 -123 -92 -138 -88 -87 -98 -136 -105 -101 -101 -118 -109 -144 -123 -155 -132 -148 -148 -148 -149 -189 -164 -166 -167 -164 -172 -169 -143 -149 -106 -101 -99 -32 -98 -114 -135 -176 -144 -183 -168 -197 -134 -196 -59 -343 94 820 107 20 -30 -249 -93 -200 -146 -199 -131 -162 -120 -141 -113 -169 -97 -108 -74 -124 -18 -57 8 50 30 73 12 6 -11 -64 -54 -129 -76 -168 -117 -174 -84 -138 -156 -155 -131 -163 -120 -138 -79 -119 -76 -90 -64 -72 -23 -69 -46 -77 -33 -53 -26 -70 -1 0 31 54 31 70 35 -44 -9 -56 -4 -81 1 -81 -2 -220 13 372 300 437 132 -113 -53 -160 -106 -175 -122 -156 -109 -140 -110 -110 -84 -143 -50 -112 -34 -47 57 22 110 87 104 90 87 24 50 -74 0 -81 -48 -60 -30 -57 20 -14 32 -5 53 -9 52 -12 37 2 33 29 68 -30 7 -28 -29 -47 -16 -52 -37 -72 -35 -37 3 -79 20 10 18 64 42 9 -28 -77 -65 -112 -86 -145 -47 -117 -90 -208 204 818 372 69 -57 -129 -71 -91 -86 -87 -45 -56 -38 -52 -22 -22 -3 -7 18 4 53 64 137 176 161 206 160 136 68 7 6 -43 -31 -55 -31 -54 -54 -69 -73 -42 -25 -30 -3 -20 -22 -32 -41 -49 -38 -49 -28 -48 -39 -49 -49 -38 -48 -48 -61 -38 -1 -70 -12 -7 19 46 35 108 67 37 -38 -17 -30 -62 -12 -52 -8 -104 -97 -243 24 763 535 29 -128 -212 -152 -226 -202 -180 -108 -152 -134 -144 -107 -102 -145 -147 -78 -133 -55 -52 33 38 76 92 99 99 28 -22 -44 -62 -66 -109 -92 -92 -90 -111 -120 -105 -65 -88 -60 -80 -104 -84 -97 -99 -87 -100 -102 -152 -142 -141 -135 -156 -143 -138 -152 -158 -142 -150 -141 -166 -104 -56 -40 -30 -110 -121 -179 -246 -203 -251 -205 -230 -176 -289 -353 24 701 631 24 -179 -281 -220 -188 -182 -159 -166 -163 -205 -181 -165 -135 -114 -114 -171 -103 -92 -56 -7 17 59 67 57 -23 -100 -139 -161 -170 -167 -161 -167 -206 -205 -176 -181 -167 -177 -160 -173 -181 -173 -172 -170 -216 -195 -153 -161 -150 -169 -141 -143 -111 -131 -189 -141 -106 -100 -42 -35 10 29 -101 -170 -158 -115 -121 -129 -93 -145 -86 -166 -230 -177 525 821 127 -90 -234 -243 -198 -218 -189 -186 -189 -239 -213 -188 -180 -188 -160 -168 -119 -126 -94 -63 -18 31 49 50 41 -11 -55 -84 -171 -181 -175 -129 -98 -107 -103 -130 -95 -93 -85 -83 -72 -72 -67 -81 -61 -73 -60 -74 -99 -126 -146 -133 -71 -87 -96 -113 -98 -111 -171 -111 -50 -12 -3 25 13 -95 -147 -226 -168 -235 -113 -53 26 -125 -127 -217 291 865 537 12 -123 -70 -126 -114 -78 -56 -46 -38 -57 -89 -58 -18 -14 -61 0 19 -13 82 156 168 219 235 172 107 61 3 -17 -50 -124 -142 -136 -94 -88 -115 -102 -105 -86 -105 -125 -105 -102 -107 -114 -152 -128 -133 -110 -130 -166 -100 -67 -130 -137 -97 -79 -67 -35 5 22 65 45 -45 -71 -97 -103 -88 -107 -90 -106 -183 -206 -257 -51 672 756 81 -112 -190 -271 -170 -195 -133 -148 -139 -221 -176 -132 -149 -135 -129 -112 -95 -44 -35 -63 20 126 127 129 57 -49 -65 -64 -99 -108 -103 -112 -110 -95 -113 -96 -86 -94 -66 -72 -66 -65 -59 -58 -60 -60 -47 -83 -9 -26 -57 -44 -66 -101 -58 -9 26 32 51 53 -5 -94 -147 -150 -112 -103 -109 -108 -171 -241 -313 212 804 494 32 -94 -157 -165 -141 -121 -106 -132 -57 -50 -42 -32 -23 -1 -3 5 50 44 125 155 186 222 261 212 174 139 125 67 48 50 36 8 12 -36 42 -2 12 4 22 16 3 -3 3 -29 -10 -28 -54 -36 -40 -54 -29 -42 -74 -75 -52 -59 -30 1 3 116 317 108 148 20 52 17 51 31 25 -37 15 -74 -143 -25 596 843 119 -93 -47 -135 -10 -108 -36 -65 -54 -104 -80 -65 -48 -61 -45 -43 -53 -32 7 17 88 65 25 95 -42 -10 -116 -101 -151 -185 -138 -165 -121 -122 -100 -134 -110 -114 -111 -100 -77 -103 -56 -82 -100 -119 -86 -100 -55 -75 -88 -77 -77 -90 -59 -111 -79 -92 -35 -12 10 15 -1 -57 -106 -146 -122 -158 -157 -174 -142 -182 -269 -284 269 822 424 33 -149 -270 -203 -262 -226 -264 -217 -203 -186 -183 -157 -163 -139 -155 -118 -116 -63 -44 35 39 102 111 130 62 28 -52 -60 -99 -90 -95 -86 -125 -96 -128 -137 -165 -124 -175 -120 -173 -139 -125 -119 -137 -145 -158 -158 -167 -166 -180 -180 -192 -165 -137 -79 -120 -52 -60 -103 -156 -183 -195 -170 -188 -139 -211 -134 -271 -270 -47 555 732 176 -98 -157 -214 -136 -221 -149 -189 -122 -152 -128 -133 -128 -151 -115 -112 -108 -93 -13 -14 64 65 104 68 39 -8 -36 -111 -104 -146 -138 -137 -145 -156 -166 -172 -136 -149 -112 -99 -93 -93 -69 -86 -48 -78 -64 -78 -51 -72 -59 -80 -38 -73 -59 -52 -56 -44 24 32 83 82 73 -15 -39 -73 -89 -103 -66 -107 -80 -140 -184 -120 486 886 226 -86 -87 -169 -123 -162 -121 -168 -106 -115 -124 -120 -98 -107 -94 -98 -74 -48 13 45 109 168 204 191 170 115 70 25 14 -30 -10 -53 -49 -26 -48 -23 -24 -8 -3 -14 -2 -2 9 -22 -29 -39 -41 -42 -46 -59 -65 -61 -68 -50 -71 -73 -72 -49 11 -9 33 40 20 12 -107 -63 -81 -82 -110 -86 -73 -83 -136 -157 454 970 504 97 0 -60 -30 -42 -17 -25 -11 5 16 29 68 49 46 83 73 112 150 185 234 263 298 292 276 204 144 102 65 57 26 23 17 27 6 9 56 7 31 26 25 29 36 29 34 29 46 53 54 44 61 59 76 51 97 65 84 125 140 178 212 244 238 176 137 101 115 111 116 104 119 100 9 -6 612 1112 646 276 109 18 60 15 51 26 47 44 42 51 51 42 62 46 74 74 107 117 180 231 297 266 261 248 189 144 115 79 109 79 84 75 99 97 116 133 135 127 141 142 130 144 136 123 125 122 126 139 117 77 107 114 101 126 152 160 194 184 163 78 56 30 14 16 24 15 33 0 -86 -58 688 1084 458 219 56 -53 34 -33 34 9 35 30 48 80 100 87 95 89 125 137 165 210 261 291 328 328 318 257 219 171 144 127 104 99 97 81 87 70 84 58 88 87 65 85 91 47 67 45 23 57 49 44 48 43 20 18 44 34 78 79 84 137 182 209 189 167 111 67 47 26 39 25 2 39 29 -73 -44 624 1050 493 140 20 -44 -19 -58 -49 -30 -55 -49 -60 -45 -55 -43 -70 -46 -41 -7 6 56 100 153 166 187 134 76 28 -11 -79 -81 -107 -99 -106 -103 -101 -115 -82 -54 -72 -47 -55 -49 -35 -16 -22 -18 -1 -6 -10 -48 -10 -27 -44 -19 -44 -39 -67 -52 -58 -69 -54 -59 -27 -2 13 33 1 -25 -101 -134 -154 -153 -159 -151 -157 -163 -222 -237 52 755 669 30 -129 -193 -172 -118 -148 -118 -125 -56 -63 -44 -38 2 -14 -7 12 30 51 113 152 225 252 277 249 203 150 103 69 40 10 -22 -11 -23 -34 -35 -50 -67 -62 -71 -56 -47 -78 -65 -83 -88 -89 -96 -87 -123 -113 -120 -111 -104 -122 -119 -100 -83 -84 -76 -52 -71 -73 -41 18 61 72 102 108 59 28 -12 -34 -12 -23 -45 -27 -27 -82 -112 139 869 867 211 6 -94 -85 -84 -107 -59 -87 -74 -82 -72 -89 -81 -81 -50 -57 -46 -53 17 45 73 117 147 151 107 56 44 -27 -70 -76 -59 -68 -67 -60 -59 -59 -52 -59 -47 -30 -52 -34 -17 -42 -40 -9 -26 7 10 0 14 8 -20 -14 -35 -34 -26 -59 -65 -52 -22 -8 11 31 3 -74 -141 -133 -141 -155 -147 -185 -168 -179 -285 -283 284 878 503 123 -89 -209 -158 -193 -163 -175 -160 -150 -138 -124 -127 -132 -103 -112 -115 -58 -25 19 77 130 166 182 165 140 33 -21 -45 -72 -111 -104 -113 -125 -117 -103 -90 -98 -80 -88 
