ADC Sampling rate (Hz):
100
Fragment duration (sec):
21
Number of samples exported by each lead:
2099

#I[uV]
288 199 225 172 168 162 160 97 74 69 68 102 116 104 129 132 75 92 60 36 81 32 42 8 50 236 413 249 -119 -130 -15 46 76 25 81 100 81 94 75 118 147 115 105 160 200 148 193 263 247 222 218 202 180 129 85 90 33 80 68 33 59 38 64 63 38 73 75 38 52 78 34 39 57 41 16 20 39 18 28 35 18 68 22 -7 0 37 57 6 16 5 33 26 29 104 93 43 57 74 10 16 7 -8 20 -21 -53 101 358 292 -83 -235 -130 -9 12 -1 18 1 32 19 17 40 40 73 59 83 94 133 146 189 191 168 182 179 117 67 56 39 5 -5 7 -9 -3 33 18 10 -12 11 27 -15 4 -7 11 22 -21 -9 12 22 -12 -5 -21 -29 26 9 3 1 0 6 -10 24 -27 12 46 -7 -5 11 -6 13 35 81 90 51 38 18 -9 4 13 -37 7 -16 -33 95 334 248 -110 -237 -162 -5 12 1 10 4 37 7 25 48 44 53 68 82 110 105 149 185 196 156 165 154 158 34 -3 45 -42 -50 -8 -19 13 -11 23 27 -24 -3 -20 -11 12 4 -26 13 1 -23 5 -21 -3 -2 20 -16 12 -26 -40 11 -24 -9 -29 -13 16 -6 2 -7 -46 -40 -4 -44 -11 -18 -3 46 39 -3 20 37 -63 -65 -34 -25 -23 -76 -56 60 270 217 -113 -248 -150 -68 -60 -5 32 -8 -29 20 20 11 63 45 50 43 117 115 125 199 157 155 184 142 115 56 5 -25 -44 -31 -24 -55 -50 -30 -25 -28 -53 -52 -2 -38 -37 -32 -17 -14 -22 -26 -73 -53 -51 -56 -43 -50 -51 -45 -22 -52 -48 -3 -58 -67 -37 -58 -66 -55 -38 -26 -39 -65 -32 -60 -68 -41 0 -23 -27 -11 -17 -8 -67 -81 -55 -61 -87 -90 -114 -53 157 297 122 -265 -254 -89 -74 -66 -47 -17 -65 -46 -8 -10 -9 -10 0 2 34 55 78 106 63 124 161 136 98 59 20 -33 -47 -36 -43 -43 -26 -50 -47 -29 -58 -65 -25 -36 9 -28 -83 -49 -60 -55 -61 -53 -48 -72 -32 -47 -49 -81 -75 -49 -61 -62 -74 -24 -41 -68 -35 -59 -51 -70 -51 -71 -38 -61 -113 -27 -41 -49 -43 -52 -2 8 10 14 -29 -54 -48 -64 -81 -96 -89 -125 -6 321 301 -132 -243 -171 -93 -50 -73 -33 -64 -41 17 -30 -18 19 -29 -35 20 68 91 98 129 140 105 113 105 63 103 -19 -59 -52 -54 -41 -64 -32 -32 -56 -59 -48 -15 -37 -23 -15 -16 -15 -47 -54 -44 -16 -42 -38 -1 -63 -33 -46 -19 10 -43 -28 -51 -27 -22 -59 -35 -44 -46 12 -16 -50 -24 -25 -31 -33 -15 -26 -9 -17 -56 -9 65 40 14 31 19 -35 -14 -33 -67 -50 -54 -45 142 355 203 -161 -261 -119 -23 -10 -17 -24 -7 23 36 8 32 53 0 31 57 100 114 103 164 208 164 189 158 117 39 -24 8 -12 -43 -26 -14 -1 -37 -42 -28 -17 -15 11 2 -25 3 -22 -53 23 -11 -25 -35 -34 -2 8 -22 -34 -54 2 19 -15 -39 7 -6 -39 -4 -4 -27 -6 22 -33 -5 6 -37 0 -13 13 26 -34 3 75 10 31 54 15 -10 -43 -11 -49 -43 -21 -83 56 341 233 -92 -225 -229 -82 -22 -20 3 -16 41 36 14 2 26 38 -11 32 90 102 84 150 193 150 157 147 107 48 -14 -7 -33 -31 -41 -97 -83 -63 -84 -71 -58 -51 -44 -98 -115 -41 -77 -85 -78 -110 -92 -117 -116 -99 -121 -91 -109 -131 -147 -126 -126 -136 -155 -141 -106 -138 -159 -152 -120 -155 -130 -156 -185 -146 -154 -168 -158 -145 -154 -166 -158 -109 -119 -141 -112 -132 -199 -196 -213 -220 -201 -208 -269 -112 188 25 -342 -418 -336 -207 -210 -217 -183 -234 -209 -216 -225 -191 -188 -202 -162 -94 -121 -148 -108 -47 -52 -18 -40 -66 -109 -186 -138 -176 -227 -219 -232 -200 -235 -232 -237 -191 -178 -203 -173 -204 -200 -200 -196 -166 -191 -204 -176 -166 -205 -215 -190 -172 -173 -207 -215 -164 -172 -188 -137 -153 -214 -187 -149 -174 -177 -173 -166 -139 -129 -171 -152 -150 -136 -148 -162 -121 -102 -54 -66 -78 -105 -90 -129 -163 -105 -159 -122 -110 -166 -19 263 237 -180 -311 -211 -125 -105 -116 -110 -68 -60 -79 -92 -83 -61 -57 -48 -27 16 -2 8 73 92 111 85 49 4 -46 -54 -77 -105 -96 -73 -85 -126 -122 -112 -107 -72 -83 -83 -80 -62 -50 -90 -83 -98 -116 -65 -88 -99 -86 -61 -112 -83 -59 -136 -77 -85 -106 -72 -91 -73 -88 -110 -63 -88 -110 -94 -81 -66 -88 -99 -94 -67 -55 -117 -56 -41 -82 -52 -25 -23 17 -19 -5 -23 -81 -57 -42 -64 -41 -56 -88 80 359 208 -170 -223 -160 -19 -60 -40 18 -26 -10 35 40 7 -1 43 65 43 91 80 141 210 175 183 196 174 150 78 14 29 1 -12 12 -3 10 17 -1 2 62 -48 -13 66 27 29 63 41 34 31 13 58 71 15 25 72 30 40 92 17 21 73 29 39 77 61 68 43 78 71 46 48 43 65 53 54 97 32 39 57 59 89 62 98 107 95 96 82 107 79 23 27 61 74 10 0 85 335 407 67 -119 -119 -33 70 84 86 76 94 82 86 118 77 114 137 165 151 201 232 209 248 270 256 262 242 165 115 117 94 59 74 61 59 69 41 82 61 81 102 47 67 76 93 129 100 36 59 83 53 58 112 78 85 93 95 63 83 78 75 98 70 105 91 101 98 87 83 91 50 102 152 63 89 141 102 113 64 84 157 82 133 182 140 134 168 132 85 62 79 74 89 81 24 186 468 455 47 -93 8 68 73 60 118 102 99 79 125 131 136 156 96 145 154 201 261 216 287 298 254 254 176 187 140 93 117 101 49 70 49 68 108 64 71 103 93 76 63 81 102 62 87 89 52 82 71 70 81 60 34 35 71 56 51 91 35 48 50 16 54 64 49 41 60 89 57 47 76 61 65 74 61 87 70 52 73 66 66 88 107 136 134 125 109 85 71 49 54 65 46 59 -62 50 364 450 209 -122 -131 29 38 39 56 67 80 32 96 62 26 85 88 107 147 161 182 207 199 229 250 214 204 152 155 81 10 28 33 54 25 32 73 6 -8 84 51 26 27 37 24 50 22 8 34 39 30 40 24 0 60 12 -15 34 11 4 -12 31 37 11 15 9 -5 -1 25 8 46 6 0 28 19 1 15 32 7 8 26 53 -3 -8 4 83 68 47 93 50 39 30 36 -13 -29 22 -21 -61 27 236 338 133 -166 -184 -64 7 -7 -13 5 25 38 20 11 14 52 64 61 86 75 125 170 187 186 191 199 155 123 64 27 38 -40 -31 -7 -51 -22 -4 -37 25 -30 -39 -6 -13 -16 0 12 -28 3 -8 -37 -63 -30 2 -58 -9 -19 -64 -42 -20 -43 -73 0 2 -57 -35 -37 -39 -24 -32 -44 -24 -26 -74 5 -58 -37 -10 -84 -28 -49 -19 -24 0 61 15 12 5 16 6 -59 -32 -19 -35 -38 -106 -2 264 281 18 -169 -191 -97 -48 -31 -18 2 2 -33 -13 9 53 2 10 59 14 107 117 105 151 189 176 169 157 104 43 2 -20 10 0 -36 -20 6 -14 -1 -20 -4 -4 -4 5 4 22 4 -33 -5 17 31 34 -52 -15 21 22 -15 -17 -27 -5 24 16 -25 -13 16 12 22 -13 -5 -27 -31 -6 13 12 -21 35 -7 -29 15 -25 -1 28 35 48 57 40 70 55 41 17 -9 27 7 -10 -8 -64 43 301 423 73 -190 -139 -37 32 10 -17 -11 30 -7 24 50 2 38 65 69 71 81 139 185 183 208 175 158 167 114 30 62 33 -30 -17 -16 -15 -33 -16 -11 -11 42 -23 -43 2 -28 32 -29 -19 -5 -34 42 -34 -11 44 21 10 -32 -18 -28 -17 -17 -9 2 18 1 -52 0 -20 -39 -1 -28 -45 -1 37 -13 -34 -18 -3 -24 -23 -3 -19 -10 12 29 73 25 25 12 -5 -40 -16 -8 -34 -7 -61 -73 173 336 143 -138 -211 -83 -22 -5 -29 -64 -26 -15 -14 -46 -48 20 -16 -34 6 18 36 56 103 103 89 104 60 -1 -3 -69 -119 -143 -146 -148 -152 -169 -119 -164 -203 -190 -209 -159 -163 -165 -171 -220 -143 -209 -243 -185 -184 -208 -218 -249 -227 -209 -286 -158 -188 -259 -234 -238 -195 -240 -225 -227 -252 -250 -258 -236 -263 -234 -244 -248 -219 -266 -279 -274 -213 -289 -261 -211 -231 -218 -257 -243 -213 -279 -277 -268 -251 -235 -293 -376 -263 35 56 -188 -404 -424 -301 -249 -292 -264 -253 -276 -211 -209 -223 -224 -243 -205 -181 -184 -155 -124 -64 -74 -59 23 -28 -129 -143 -157 -199 -230 -224 -255 -245 -218 -242 -240 -248 -258 -233 -281 -206 -170 -234 -195 -206 -212 -166 -200 -237 -222 -204 -164 -168 -179 -159 -199 -233 -177 -161 -175 -195 -139 -131 -150 -120 -175 -153 -151 -130 -113 -157 -101 -94 -107 -126 -151 -69 -84 -84 -74 -30 8 -60 13 19 -120 -76 -62 -100 -44 -64 -91 134 389 199 -151 -161 -81 -5 55 -23 7 0 0 121 41 29 94 71 96 100 153 170 213 264 238 288 250 210 253 190 149 104 100 139 114 58 68 143 183 89 95 144 172 152 140 132 129 185 190 133 146 173 147 158 142 127 163 162 244 206 154 102 188 217 131 180 201 220 167 206 250 218 180 170 211 225 173 198 248 194 204 233 274 290 288 315 294 181 235 246 199 252 268 232 123 313 532 650 485 84 114 301 276 240 244 315 308 282 344 256 338 349 319 367 323 373 431 450 426 441 506 432 415 376 384 324 236 282 228 244 266 212 258 264 216 233 246 214 249 250 225 241 216 240 196 220 261 168 199 175 169 232 164 80 149 166 113 172 88 66 124 52 104 100 65 77 51 71 75 91 37 14 75 46 67 43 51 56 82 108 76 81 121 96 29 26 42 -5 17 3 -50 96 337 392 106 -174 -121 -71 18 42 43 -7 12 68 -15 8 32 89 65 21 87 66 128 149 154 204 217 220 148 52 29 -1 -11 -17 -43 16 -23 -85 -35 -55 -39 -48 -67 -32 18 -40 -71 -34 -43 0 -35 -129 2 9 -118 -56 -27 -78 -110 -39 -38 -53 -71 -66 -90 -84 6 -120 -89 -55 -77 -68 -59 -49 -86 -72 -33 -95 -92 -26 -87 -69 -31 10 -12 -29 9 -71 -49 -77 -130 -67 -49 -105 -152 -33 251 277 -41 -209 -238 -116 -57 -108 -52 -30 -29 -35 -113 -70 0 -16 -38 -3 7 61 83 70 99 134 121 108 97 47 28 -36 -77 -91 -94 
#II[uV]
-15789 -13651 -12549 -10467 -9381 -7210 -6196 -4054 -3021 -861 171 217 306 284 266 265 169 187 180 181 171 150 197 197 180 323 785 725 32 -173 -28 182 210 149 204 249 204 227 216 224 210 234 227 238 285 272 275 342 361 357 303 336 309 227 163 134 119 153 126 100 115 117 129 129 129 140 106 118 118 120 97 110 80 114 106 45 71 91 75 86 97 71 61 99 60 83 80 80 80 88 71 71 135 174 123 90 65 69 26 23 -14 -13 35 -34 52 69 419 717 86 -312 -270 -36 41 41 61 79 78 76 74 108 130 100 132 169 178 207 207 275 233 270 282 269 209 171 137 73 37 36 36 68 64 77 61 66 19 66 58 32 8 45 4 43 33 -7 26 -5 6 29 -26 21 14 9 -13 35 34 -1 2 26 -11 7 22 9 22 37 25 45 108 166 126 73 20 36 0 1 -1 14 20 -1 51 84 496 591 -9 -265 -285 -37 52 20 32 37 48 48 50 82 43 48 74 135 136 126 169 199 226 199 199 199 153 113 62 -1 -2 19 -40 -26 31 26 13 40 30 23 1 50 29 -32 -9 64 10 -16 0 -1 -13 -13 10 21 -15 -20 -16 22 -14 13 -14 -7 -33 -20 -6 33 -58 -63 -20 -54 -17 -3 19 65 21 21 -42 -31 -97 -96 -80 -102 -77 -100 -51 -55 343 612 12 -283 -308 -130 -29 -2 26 26 49 11 75 62 104 117 106 144 153 175 196 220 220 233 245 225 175 153 90 -7 -10 -9 8 -29 -48 -8 -22 29 -6 -5 15 0 0 -1 6 -30 -30 8 -30 -3 -13 -31 -46 15 17 27 3 -34 32 59 -9 62 62 8 8 52 39 64 24 12 56 57 21 58 115 137 85 87 53 16 -36 -28 -40 -8 -48 -29 6 -110 188 763 447 -314 -442 -159 -67 -31 7 10 21 4 28 4 16 50 50 63 93 131 120 168 190 205 253 180 155 156 82 69 -34 -21 -21 -61 -3 -13 -53 -4 -14 -19 -17 -33 -7 -38 -79 -57 -68 -25 -105 -101 -70 -109 -85 -75 -89 -105 -79 -93 -93 -93 -107 -55 -122 -85 -65 -89 -86 -78 -69 -120 -49 -69 -131 -62 -61 -36 -53 14 36 13 4 -79 -61 -70 -105 -53 -101 -77 -94 -14 -47 324 681 61 -404 -340 -115 -21 -93 -27 -35 0 0 20 20 31 0 2 15 87 110 140 184 174 174 182 151 155 69 10 -28 -53 -30 -56 -69 -9 -49 -25 -30 -13 8 20 5 9 0 -14 -5 -17 -48 -26 -12 -8 1 -20 -44 -20 0 -1 -45 -35 -21 -7 -72 -47 -54 -41 -30 -52 -49 -24 -50 -39 -44 -51 -37 -16 23 -38 -42 54 90 64 7 -2 -63 -38 7 -31 -23 -23 -36 14 92 544 519 -50 -324 -259 -33 37 50 1 53 76 67 99 85 117 60 123 152 130 164 189 217 230 219 262 235 191 126 74 52 -5 -49 -12 -23 -13 -24 24 14 -6 -20 27 15 -4 12 0 22 12 16 48 -1 0 -2 21 20 5 47 20 9 34 14 41 13 3 64 -1 59 31 41 25 39 91 9 48 41 18 15 9 134 82 92 116 22 21 10 -16 -16 -30 11 0 45 1 398 728 100 -193 -234 -114 13 37 111 91 129 174 137 150 147 162 160 185 207 250 240 279 325 336 346 299 286 237 164 164 132 101 74 91 76 59 113 56 108 103 76 122 108 132 82 76 84 54 103 104 83 55 78 136 71 49 68 49 61 76 130 107 79 90 128 108 75 103 117 103 100 88 92 132 98 113 135 111 173 199 152 162 91 87 52 42 57 35 36 32 78 119 544 640 -19 -368 -252 14 6 35 61 12 91 44 -4 52 17 72 94 86 120 116 156 218 177 221 241 150 150 88 25 -7 -76 -57 -103 -97 -94 -93 -87 -97 -67 -88 -122 -52 -77 -140 -105 -140 -116 -126 -208 -194 -207 -197 -202 -230 -206 -215 -226 -203 -246 -231 -199 -237 -259 -247 -235 -236 -239 -238 -271 -243 -246 -253 -255 -277 -226 -246 -234 -197 -163 -101 -166 -196 -266 -215 -242 -279 -275 -288 -213 -293 -209 -175 120 405 -156 -596 -524 -309 -255 -236 -203 -221 -193 -197 -231 -210 -211 -168 -154 -165 -132 -151 -90 -40 -40 -20 -28 -27 -92 -162 -195 -262 -250 -261 -314 -304 -291 -249 -258 -247 -231 -221 -211 -220 -205 -208 -198 -208 -230 -218 -206 -210 -219 -227 -203 -229 -227 -203 -227 -200 -178 -217 -216 -222 -196 -182 -217 -175 -204 -218 -212 -183 -150 -199 -199 -138 -179 -193 -172 -134 -132 -161 -114 -59 -48 -60 -102 -132 -121 -142 -145 -95 -128 -129 -97 -89 -18 418 429 -65 -358 -398 -134 -71 -82 -35 -9 0 6 10 3 19 32 43 66 78 99 138 178 191 202 223 185 158 85 27 16 -10 2 -44 -43 -15 -28 27 -8 11 -10 -23 67 61 18 80 46 32 69 37 71 67 49 71 71 74 52 77 62 48 86 108 83 56 95 71 104 114 93 80 82 83 90 108 64 80 68 63 66 58 73 84 143 174 95 114 63 25 93 33 -3 -11 81 4 34 21 312 752 244 -167 -256 -57 84 39 139 85 121 131 121 163 136 159 177 210 210 201 273 311 294 318 356 302 279 257 166 114 83 39 41 28 25 25 -1 42 54 53 73 75 14 51 53 52 36 -6 15 15 26 -3 20 20 -14 76 44 11 33 36 46 -1 5 63 23 44 31 63 52 52 28 40 51 55 79 57 31 67 56 83 52 84 164 99 101 108 58 15 4 47 -12 -14 24 -6 51 80 452 749 114 -357 -236 -6 9 26 100 49 35 107 108 98 115 146 107 144 155 268 256 285 353 289 303 292 226 197 148 121 38 50 13 37 39 18 45 48 32 66 26 23 35 42 26 37 18 18 6 3 15 14 -27 5 -32 -29 19 -33 -16 -5 -33 -17 -14 -14 0 -1 8 46 8 12 22 22 24 35 23 35 35 18 52 75 7 56 42 51 120 108 138 97 11 61 51 -6 -32 -24 22 -40 20 -28 219 761 314 -251 -363 -137 5 -18 48 27 27 28 42 59 67 90 85 85 125 153 186 249 241 277 297 297 240 203 180 70 56 78 -8 9 0 -13 39 23 8 61 33 43 32 42 28 25 3 0 1 22 -7 -16 13 -21 -12 1 -87 -2 9 -48 -23 -27 -5 -42 -42 12 -32 -20 -43 -20 7 -30 -17 -17 8 -10 -14 24 0 23 6 -15 11 11 -6 114 130 93 82 5 -8 7 -7 -7 -15 -26 -42 2 -65 160 764 330 -231 -268 -255 -68 2 19 31 30 31 33 48 8 63 73 52 78 124 131 136 200 233 182 219 178 139 125 52 4 -17 -21 -21 -44 -55 -32 -2 -22 -34 -19 1 -9 -32 17 7 -41 16 -43 -30 -16 -63 -82 -60 3 -54 -90 -53 -54 -82 -84 -45 -78 -57 -58 -100 -88 -70 -65 -77 -102 -66 -101 -84 -108 -61 -98 -97 -67 -105 -54 -41 -17 24 10 20 -67 -78 -58 -102 -102 -114 -88 -103 -67 -112 166 720 140 -372 -383 -263 -139 -91 -39 -46 -59 -73 -75 -38 -46 -58 -29 -26 -13 50 53 76 107 121 107 145 130 94 -33 -85 -84 -111 -136 -212 -142 -68 -125 -85 -123 -96 -65 -103 -66 -58 -69 -66 -113 -82 -98 -87 -85 -86 -117 -78 -100 -96 -95 -118 -80 -108 -145 -105 -104 -120 -144 -107 -160 -125 -137 -152 -129 -109 -109 -132 -143 -145 -146 -123 -136 -112 -129 -92 -68 -52 -55 -74 -148 -110 -99 -142 -146 -106 -128 -128 -68 -134 171 748 169 -407 -434 -219 -52 -94 -95 -38 -51 -57 -21 -37 -73 27 0 -9 8 26 77 122 132 157 128 140 141 28 -26 -40 -82 -70 -116 -117 -104 -117 -137 -85 -64 -50 -104 -56 -94 -97 -70 -58 -60 -50 -65 -55 -18 -71 -61 -35 -109 -34 -33 -43 -55 -16 -27 -74 -39 -20 -32 -42 -44 -8 -44 -30 -35 -10 -55 -14 -49 -9 -19 -66 -29 -8 -16 -27 60 98 45 42 19 -41 -28 -22 -25 -22 -24 -13 -1 -59 152 673 461 -53 -239 -246 0 73 48 112 101 89 146 99 139 187 136 179 187 183 212 250 294 321 320 369 290 248 170 106 41 40 60 14 32 26 -43 28 -2 10 31 42 40 14 4 40 14 -3 -18 8 -29 -14 -38 -34 -62 -50 -10 -35 -61 -62 -60 -53 -50 -81 -77 -34 -97 -92 -108 -110 -74 -100 -114 -79 -100 -131 -119 -97 -106 -144 -142 -104 -81 -81 -132 -173 -169 -173 -236 -218 -218 -187 -250 -202 -249 36 519 -28 -414 -495 -454 -229 -272 -207 -230 -177 -154 -188 -157 -157 -165 -116 -141 -155 -89 -92 -40 32 7 7 7 -42 -129 -114 -176 -261 -236 -232 -302 -254 -265 -332 -314 -322 -335 -306 -318 -294 -282 -278 -315 -293 -344 -292 -336 -418 -304 -313 -340 -319 -356 -341 -393 -344 -322 -338 -395 -315 -315 -323 -274 -302 -322 -298 -298 -257 -295 -311 -275 -301 -301 -304 -279 -232 -212 -165 -202 -156 -246 -273 -250 -318 -294 -256 -307 -278 -252 -249 -118 374 304 -354 -647 -471 -301 -234 -234 -157 -185 -209 -129 -157 -148 -126 -146 -131 -85 -21 -61 65 76 114 155 76 90 126 21 -16 -105 -59 -74 -102 -132 -143 -67 -66 -112 -67 -23 0 -7 -19 -88 -20 -38 -3 7 -116 -63 -27 -52 -41 -90 -28 -52 -47 1 -60 -62 -16 -48 -73 -40 -18 -21 -6 4 -35 -47 -9 -44 7 19 -9 -16 34 49 36 22 115 139 150 110 68 55 65 80 29 65 107 -7 128 87 321 878 428 -152 -198 14 143 132 177 166 201 172 197 161 282 292 216 264 302 314 280 357 422 407 457 431 427 367 308 239 207 183 158 159 158 171 218 195 196 186 235 234 233 233 222 239 189 218 243 199 197 191 193 180 219 208 208 172 212 208 156 222 147 130 178 134 180 165 124 143 136 162 172 120 133 119 172 158 134 188 152 158 239 265 232 189 156 172 183 140 186 111 132 141 199 143 384 941 443 -70 -85 3 176 169 220 183 215 214 231 232 211 258 258 221 232 278 334 331 369 396 371 375 363 277 227 173 153 112 138 115 78 92 119 115 85 100 105 105 126 104 93 113 114 141 122 50 132 122 44 93 86 48 70 108 84 61 73 56 56 33 94 44 41 64 11 34 58 42 55 -22 -16 36 15 17 -18 14 76 96 86 38 -14 7 30 -50 -34 -30 -17 -25 37 -25 287 755 150 -216 -226 -169 18 46 67 29 80 94 81 79 68 115 123 112 116 161 184 212 250 264 265 252 253 143 96 54 35 25 -81 
#III[uV]
-16078 -13851 -12774 -10640 -9549 -7372 -6357 -4152 -3096 -931 103 114 190 180 136 133 94 94 119 145 89 117 154 188 129 86 372 475 152 -42 -12 136 134 124 123 149 123 132 140 105 62 119 121 78 85 123 81 79 114 134 85 133 128 97 77 43 85 72 58 67 56 78 65 66 91 66 31 80 66 41 63 70 22 73 89 24 31 72 46 50 78 3 38 107 60 45 23 73 63 82 38 45 105 70 29 47 7 -5 16 7 -22 -5 15 -13 105 -32 60 425 169 -76 -140 -26 28 43 43 78 45 57 57 68 89 26 72 86 84 73 60 85 41 102 99 90 91 103 81 33 31 42 29 77 67 43 43 56 31 54 31 47 4 52 -7 21 55 1 13 -28 19 35 -5 51 -12 0 -16 33 34 -7 13 2 15 -4 -23 17 28 25 31 31 73 85 36 22 -18 17 10 -3 -14 52 13 14 84 -11 161 342 100 -27 -123 -31 39 18 21 33 10 40 24 33 -1 -4 5 53 25 20 20 13 30 42 33 44 -4 79 66 -46 40 69 -32 -7 17 38 -10 12 55 27 21 62 17 -37 16 50 8 6 -6 20 -10 -10 -9 38 -28 5 24 10 10 22 15 5 -49 -14 -9 40 -12 -23 -16 -9 -6 15 22 19 -17 24 -62 -68 -33 -30 -45 -77 -54 -24 5 -116 72 394 126 -34 -158 -61 30 3 -6 34 79 -9 55 51 40 71 56 101 36 59 71 21 63 77 60 82 60 97 85 18 33 21 32 26 1 22 2 58 47 47 18 39 37 31 23 -15 -7 35 43 49 37 25 -2 66 68 73 26 17 80 63 48 129 100 66 75 107 78 90 64 78 88 118 90 99 115 161 112 99 71 25 30 53 14 52 38 61 121 -57 31 466 324 -49 -187 -69 6 35 55 28 86 50 36 15 25 61 50 60 58 76 41 61 126 80 91 44 57 96 62 102 12 14 22 -18 23 36 -6 25 44 45 8 3 -17 -10 3 -8 -7 30 -44 -48 -22 -36 -52 -27 -40 -24 -3 -43 -31 -31 -32 -30 -81 -16 -29 -29 -34 -7 -18 -49 -11 -8 -18 -34 -19 12 -9 66 39 5 -6 -94 -32 -16 -57 10 -20 18 -5 111 -41 3 379 194 -161 -168 -21 29 -20 5 29 41 -17 51 39 11 29 37 -5 18 18 41 55 33 69 69 46 92 -33 30 31 0 23 -14 -5 23 -16 30 29 34 23 58 29 25 16 0 41 37 -3 -10 30 29 2 43 -10 25 18 -12 -2 -7 30 19 -49 11 -18 2 16 -64 -33 25 -25 -13 -12 -18 -22 9 32 -21 14 64 24 24 -7 -34 -83 -2 21 1 43 27 17 59 -49 188 316 111 -62 -139 -9 47 68 25 60 53 31 91 52 64 61 91 94 29 50 86 52 22 54 73 76 73 86 99 43 7 -5 13 -9 -12 13 67 42 10 -4 15 12 20 9 22 76 -10 27 73 34 33 0 13 43 39 101 18 -9 50 53 33 19 42 68 3 87 37 19 59 44 84 46 47 55 4 -10 43 130 6 82 84 -31 5 20 26 -4 19 54 20 129 -55 56 495 192 32 -5 -31 36 57 108 107 88 137 122 147 121 123 171 153 117 148 155 129 132 185 188 152 178 188 178 171 166 133 115 188 159 123 197 128 167 155 121 220 224 173 159 162 162 164 196 221 200 155 199 228 180 180 216 176 188 213 285 248 186 229 287 261 195 258 248 260 285 235 246 301 256 259 290 278 332 309 272 304 204 220 252 239 271 255 238 241 348 232 355 614 322 49 83 222 216 253 245 247 301 261 220 243 206 274 257 181 241 265 265 266 229 240 282 216 260 275 164 168 151 161 128 102 141 138 150 94 110 115 50 152 123 60 91 26 74 77 -32 -28 -2 18 -11 -57 -32 -7 -11 -38 -74 -43 -61 -83 -45 -59 -85 -61 -61 -64 -105 -103 -116 -82 -103 -127 -90 -97 -72 -75 -60 -46 -99 -118 -161 -125 -113 -115 -169 -129 -91 -183 -43 -155 -143 168 23 -285 -312 -184 -149 -120 -93 -152 -133 -117 -139 -126 -149 -110 -105 -138 -149 -149 -98 -114 -133 -131 -113 -76 -97 -116 -141 -184 -144 -165 -240 -219 -164 -127 -145 -139 -158 -137 -128 -139 -143 -157 -108 -125 -131 -102 -140 -121 -119 -141 -141 -116 -144 -143 -91 -123 -93 -110 -144 -130 -122 -93 -107 -111 -116 -108 -117 -101 -83 -111 -99 -43 -111 -138 -55 -78 -91 -78 -62 -34 -25 -78 -82 -126 -97 -61 -87 -53 -63 -87 -41 -1 -99 58 221 105 -134 -237 -115 -10 -41 -53 17 11 -28 -29 -3 20 -11 -22 23 -13 19 -3 -31 15 18 27 10 8 6 12 -12 -12 14 -57 -40 -25 -46 28 -10 -50 37 -10 0 33 -10 16 5 -2 37 24 12 -3 33 46 0 44 12 -14 44 26 13 79 43 -20 34 2 61 35 22 33 34 39 25 54 10 -16 36 24 8 -1 -15 22 44 67 0 18 -18 -82 14 9 -30 -72 6 -6 34 -63 -22 345 177 -47 -136 -24 13 -45 53 9 26 49 35 44 58 45 40 45 59 0 40 101 45 48 100 40 36 91 51 -3 -10 -20 -33 -32 -33 -43 -43 -39 -6 -28 -28 28 -53 -24 -40 -76 -63 -43 -44 -67 -27 -62 -92 -57 -99 -16 -50 -51 -50 -42 -29 -99 -64 -42 -67 -56 -67 -23 -31 -39 -21 -61 -101 -7 -10 -83 -71 -45 -7 -1 -104 2 31 -82 -39 -25 -109 -117 -80 -15 -92 -89 -64 -87 26 -106 -15 293 66 -263 -245 -75 -64 -34 -17 -52 -64 28 -17 -33 -20 -10 11 0 0 67 -4 68 66 -8 49 38 49 9 7 28 -78 -51 -35 -33 -10 -50 -62 -16 -39 -37 -67 -53 -27 -38 -76 -25 -69 -71 -45 -78 -55 -55 -108 -55 -66 -64 -52 -90 -68 -97 -69 -66 -64 -30 -54 -66 -40 5 -51 -77 -35 -25 -52 -26 -42 -39 -26 -68 -18 22 -65 -10 -24 -36 12 -27 3 -28 -97 -23 -20 -55 -86 -89 -24 -99 82 -78 -144 311 105 -129 -231 -166 -33 -58 -7 -39 -52 -3 -53 -2 41 4 -3 -21 -21 -8 3 41 42 47 47 82 36 51 24 -11 46 49 -42 -44 -25 -45 -34 16 17 -23 -18 17 4 4 3 -25 -19 -8 -33 -16 -37 -57 -10 -21 -72 -10 -72 -36 -1 -53 -10 -58 -42 -54 -57 3 -27 -19 -68 -28 -38 -36 -17 -45 -11 -12 -29 -8 -7 15 -19 -69 15 19 -10 30 61 46 -10 -45 -47 -22 -44 5 14 -49 -20 64 -93 -76 425 196 -65 -84 -191 -75 9 32 26 4 -7 12 37 -5 11 9 -8 -8 49 5 -33 12 46 -8 19 23 15 61 25 -33 23 10 -13 6 -33 -27 34 -47 -3 19 7 4 -15 17 -4 -13 13 -35 7 47 -33 -84 -2 12 -34 -25 -10 -34 -39 -10 -45 -81 0 -23 -63 -48 -46 -32 -33 -77 -40 -26 -89 -50 -24 -88 -13 -39 -55 -34 -17 -16 -37 -5 8 -72 -95 -64 -42 -70 -94 -53 -64 39 -109 -98 439 121 -202 -191 -165 -90 -60 -20 -49 -61 -40 -61 -47 -99 -61 -39 -85 -27 -57 -63 -28 -43 -68 -68 -23 -26 -9 -77 -87 -63 -122 -136 -175 -121 -74 -111 -84 -103 -92 -60 -99 -72 -63 -91 -71 -80 -76 -116 -119 -119 -34 -101 -100 -123 -81 -77 -90 -74 -133 -161 -79 -90 -137 -157 -130 -146 -119 -109 -121 -122 -122 -122 -110 -179 -138 -116 -139 -110 -110 -157 -127 -116 -109 -95 -144 -203 -151 -117 -133 -173 -113 -118 -119 -3 -178 -130 325 95 -217 -294 -181 -85 -104 -77 -26 -82 -50 -46 -87 -75 -11 -65 -78 -63 -54 -61 -63 -51 -51 -46 -18 -26 -85 -56 -103 -115 -39 -98 -100 -88 -84 -121 -73 -52 -93 -81 -13 -96 -68 -102 -29 -40 -44 -30 -97 16 -59 -105 -56 -120 -1 -14 -14 -38 1 -18 -76 -57 -21 20 -43 -23 31 -42 -2 10 -8 -93 -1 -15 9 -16 -41 -6 -5 2 -17 47 68 -27 16 -6 -54 -23 17 -9 -13 9 -6 59 13 -20 337 317 84 -27 -163 22 79 78 177 128 104 160 145 188 167 153 213 181 165 176 193 191 217 231 264 229 249 174 175 161 184 206 162 185 196 75 193 201 200 240 201 203 179 175 261 158 205 224 193 154 193 179 215 165 158 276 123 126 197 174 184 144 158 147 193 155 157 149 126 189 133 129 168 119 135 159 177 107 145 118 107 149 137 125 69 44 105 40 49 33 48 43 173 14 0 463 159 -10 -70 -152 19 20 56 22 99 57 21 66 67 77 89 39 29 66 31 24 106 66 -15 35 86 14 42 22 -30 -11 23 -56 -36 -23 -92 -65 -63 -102 -25 -112 -124 -47 -82 -108 -81 -177 -91 -99 -195 -99 -149 -171 -140 -197 -142 -160 -166 -161 -163 -200 -175 -183 -172 -154 -126 -169 -147 -167 -143 -137 -209 -181 -193 -175 -153 -210 -147 -127 -91 -171 -165 -186 -286 -270 -197 -218 -193 -207 -233 -187 -158 -252 -15 104 -203 -486 -390 -295 -290 -211 -164 -184 -210 -250 -198 -178 -221 -217 -227 -185 -174 -232 -147 -188 -123 -132 -174 -119 -127 -169 -166 -210 -159 -214 -216 -190 -211 -211 -249 -201 -162 -167 -173 -159 -159 -220 -149 -224 -193 -125 -262 -236 -174 -211 -184 -218 -192 -215 -292 -205 -215 -165 -205 -265 -205 -220 -219 -242 -173 -202 -285 -266 -189 -214 -204 -206 -183 -214 -213 -144 -168 -211 -158 -151 -137 -205 -226 -126 -169 -166 -170 -187 -160 -239 4 -225 -211 227 -56 -236 -313 -287 -133 -108 -67 -149 -106 -110 -147 -95 -55 -57 -102 -103 -20 -58 -151 -93 -4 -33 -49 0 11 -9 -75 -84 -29 -99 -69 -84 -108 -41 -39 -68 -20 -47 -10 20 -16 -17 -3 -1 -27 -21 46 -20 -63 22 -5 4 50 -23 44 91 63 42 43 50 59 63 53 81 75 64 59 65 85 90 96 29 96 105 97 112 67 144 100 101 156 156 156 107 35 75 153 114 143 117 115 137 249 46 46 548 336 103 35 74 158 127 176 191 202 145 246 223 179 169 193 199 144 212 205 182 215 192 153 155 215 224 197 175 164 130 181 99 102 177 155 170 125 149 172 137 108 145 164 148 157 140 157 180 129 113 162 150 113 126 181 148 123 114 145 122 147 117 88 164 131 120 88 103 117 92 141 49 16 131 107 43 69 83 108 86 98 68 -23 79 80 26 95 36 31 79 189 7 36 478 192 -6 11 -53 76 154 119 59 109 130 194 150 67 132 162 116 108 99 100 141 151 130 143 143 156 95 67 91 112 117 13 
#avR[uV]
7750 6725 6162 5147 4606 3523 3018 1978 1473 396 -119 -160 -211 -194 -198 -198 -122 -140 -120 -109 -126 -91 -119 -102 -115 -279 -599 -487 43 151 21 -114 -143 -87 -142 -175 -143 -161 -145 -171 -179 -175 -166 -199 -243 -210 -234 -302 -304 -290 -260 -269 -245 -178 -124 -112 -76 -116 -97 -66 -87 -78 -97 -96 -83 -106 -90 -78 -85 -99 -65 -75 -69 -77 -61 -33 -55 -54 -52 -61 -58 -70 -42 -46 -30 -60 -69 -43 -48 -47 -52 -48 -82 -139 -108 -67 -61 -72 -18 -20 3 11 -27 27 0 -85 -388 -505 -1 273 200 23 -26 -19 -39 -40 -55 -48 -46 -74 -85 -86 -96 -126 -136 -170 -177 -232 -212 -219 -232 -224 -163 -119 -97 -56 -21 -15 -21 -29 -30 -55 -39 -38 -3 -38 -43 -8 -6 -18 -7 -33 -5 8 -19 -8 2 -11 23 3 -20 -9 4 -18 -17 -2 3 -25 19 -10 -34 -1 -8 -24 -9 -29 -72 -124 -108 -62 -29 -27 4 -3 -6 11 -13 9 -9 -89 -415 -420 60 251 224 21 -32 -10 -21 -20 -42 -28 -37 -65 -44 -50 -71 -108 -123 -116 -159 -192 -211 -178 -182 -176 -155 -74 -29 -21 22 15 24 22 -22 -7 -18 -34 -2 -10 9 -19 -20 13 17 -38 -6 20 -2 11 8 8 -15 -2 1 23 28 -16 19 -1 22 10 8 13 2 -13 52 51 12 49 14 10 -8 -55 -30 -8 11 -2 80 80 57 64 50 88 54 -2 -307 -415 50 265 229 99 44 4 -29 -8 -10 -15 -47 -37 -84 -81 -78 -94 -135 -145 -160 -209 -188 -194 -215 -184 -145 -104 -47 16 27 20 7 42 49 19 24 0 30 29 -6 18 18 16 5 22 26 8 51 28 32 44 45 17 17 9 9 43 7 -27 34 2 -12 24 28 1 0 -18 7 26 -11 1 23 -8 -58 -57 -28 -37 -17 -4 52 54 48 34 68 60 53 81 -173 -530 -284 290 348 124 71 48 19 3 22 21 -10 3 -3 -20 -25 -32 -63 -93 -99 -137 -126 -165 -207 -158 -127 -107 -51 -17 40 28 32 52 14 31 50 17 36 42 21 34 0 33 81 53 64 40 83 77 59 91 58 61 69 93 77 71 77 78 90 40 81 77 50 74 68 74 60 96 44 65 122 44 51 42 48 18 -17 -11 -7 32 45 62 76 59 91 86 92 70 26 -323 -491 35 323 256 104 35 83 30 49 20 -8 4 -1 -25 14 16 -17 -78 -100 -119 -156 -157 -139 -148 -128 -109 -86 4 43 52 42 49 67 20 41 41 45 31 3 8 8 3 8 14 26 35 46 21 27 23 0 41 39 33 10 -4 44 32 36 17 47 53 45 42 38 19 33 37 37 32 38 42 26 21 -7 27 49 -22 -77 -52 -11 -14 21 36 3 32 45 37 45 15 -117 -449 -361 105 293 189 28 -13 -16 11 -22 -50 -52 -53 -58 -85 -29 -77 -105 -115 -139 -146 -190 -219 -191 -226 -197 -154 -82 -25 -30 8 46 19 18 7 30 8 6 11 18 -19 -9 15 -7 11 15 -17 -2 -11 18 17 2 -14 0 14 3 -11 -14 -9 12 -24 -3 18 -29 3 -15 -12 -31 4 -17 -49 14 -24 -13 -15 -20 12 -69 -79 -51 -74 -38 -18 0 29 14 40 16 11 19 -29 -370 -480 -3 209 232 98 4 -8 -57 -37 -85 -105 -76 -76 -86 -100 -74 -109 -149 -176 -162 -215 -259 -243 -252 -223 -197 -142 -74 -78 -49 -34 -16 2 3 2 -14 7 -25 -25 -16 -12 3 -45 -2 4 -3 27 -5 6 16 21 21 -22 18 40 39 38 32 30 12 16 13 24 15 22 22 25 6 26 42 28 31 18 30 15 9 27 -7 -44 -16 -10 10 22 73 77 77 92 82 88 95 -3 -366 -332 181 393 294 96 101 90 61 110 59 85 114 69 85 64 33 4 0 16 -24 -85 -62 -101 -100 -41 -20 48 56 91 152 138 167 149 165 162 162 144 122 146 147 128 139 170 151 153 153 165 192 180 206 206 196 201 190 211 221 184 209 209 168 195 237 217 192 205 208 206 219 191 187 212 203 213 181 197 198 159 132 78 116 137 185 153 186 221 190 224 168 201 188 97 -191 -321 168 453 368 217 180 176 156 144 127 138 161 147 136 112 101 96 57 76 40 -16 -26 -45 -28 -11 43 104 124 170 178 178 193 195 209 185 185 177 152 152 147 150 134 129 144 145 164 167 136 149 159 157 132 171 155 131 181 139 132 162 144 156 135 135 163 119 146 164 153 132 108 143 149 116 123 124 144 95 87 121 83 42 36 21 61 68 72 111 101 69 96 85 77 88 -31 -389 -318 117 290 279 76 65 61 8 18 5 -21 -25 -5 -9 -38 -54 -54 -84 -90 -140 -194 -183 -193 -209 -179 -154 -81 -21 -23 4 5 16 23 2 5 -12 3 -36 29 18 -67 -44 -24 -72 -44 -33 -50 -25 -64 -69 -32 -48 -71 -52 -46 -85 -40 -34 -80 -68 -61 -66 -78 -69 -73 -96 -82 -63 -65 -63 -78 -80 -59 -89 -50 -51 -61 -58 -81 -73 -121 -141 -95 -105 -72 -66 -86 -28 -12 -25 -78 -7 -17 -53 -323 -579 -156 143 188 45 -77 -62 -113 -81 -107 -106 -103 -141 -107 -137 -157 -188 -181 -201 -253 -260 -271 -294 -306 -282 -260 -211 -140 -116 -88 -49 -57 -44 -42 -47 -20 -62 -57 -67 -88 -61 -41 -63 -73 -90 -68 -14 -37 -49 -40 -27 -66 -49 -35 -84 -69 -37 -58 -57 -61 -48 -37 -84 -57 -72 -65 -75 -67 -71 -39 -71 -101 -59 -84 -99 -66 -90 -60 -83 -105 -83 -149 -140 -120 -121 -113 -74 -45 -55 -33 -30 -56 -37 -38 -133 -460 -602 -81 225 113 -30 -41 -43 -109 -76 -67 -93 -117 -114 -126 -151 -102 -144 -154 -234 -258 -251 -320 -293 -278 -273 -201 -192 -144 -107 -78 -76 -31 -53 -44 -43 -76 -56 -52 -84 -59 -50 -49 -61 -64 -49 -52 -53 -29 -43 -43 -42 -26 -33 0 -3 -45 -11 -17 -43 0 -15 -18 -1 -26 -31 -28 -43 -34 -51 -39 -35 -50 -48 -44 -54 -48 -52 -61 -64 -40 -61 -54 -69 -113 -122 -136 -111 -60 -73 -61 -21 -11 -20 -34 -9 20 -11 -291 -606 -262 186 247 53 -21 -10 -52 -47 -54 -30 -69 -61 -47 -87 -87 -96 -136 -157 -184 -228 -220 -253 -273 -256 -222 -178 -168 -76 -33 -53 -12 -32 -12 -9 -56 -14 0 -72 -42 -35 -29 -40 -26 -38 -12 -4 -17 -31 -11 -12 -19 10 -24 -7 51 -15 -10 21 18 -2 -15 15 13 -10 19 11 8 5 -27 11 8 -5 -13 4 0 -28 -3 -16 -16 -18 -3 -1 0 -99 -99 -70 -87 -28 -15 -18 -14 10 22 1 32 29 18 -198 -551 -231 199 226 159 30 2 -2 -18 -28 -35 -27 -29 -11 -57 -68 -57 -82 -99 -128 -153 -194 -209 -186 -209 -166 -131 -95 -40 -21 28 26 14 47 39 18 20 -1 32 29 2 11 24 -9 -9 35 -10 25 34 40 47 40 59 2 37 77 47 37 63 79 22 37 57 46 69 64 47 49 60 63 46 87 39 83 49 54 90 47 77 36 32 9 -42 -12 -16 31 31 26 81 67 66 61 71 87 57 -215 -500 -79 271 287 180 94 61 29 21 28 53 44 14 -3 27 9 -16 0 -78 -85 -91 -129 -155 -141 -157 -144 -99 -5 41 52 50 67 124 81 31 70 43 72 50 35 53 30 27 23 31 73 44 40 28 25 69 66 28 39 56 56 72 42 41 64 65 59 52 65 42 86 65 82 91 68 47 48 77 53 76 88 53 80 57 50 28 10 -2 7 1 46 34 40 76 59 49 69 68 66 45 -236 -586 -121 298 286 128 10 41 56 25 10 32 -1 -6 35 -32 -33 -29 -40 -54 -108 -153 -157 -182 -151 -149 -154 -71 -1 -10 24 50 66 67 59 75 77 48 38 4 63 50 45 63 19 43 40 28 49 6 26 41 8 6 49 33 25 35 36 16 18 35 10 9 42 21 32 24 22 29 40 6 8 13 41 13 11 45 26 6 17 18 -36 -63 -59 -33 -22 14 16 31 21 15 29 10 31 66 -162 -504 -302 96 225 165 11 -34 -9 -23 -37 -37 -65 -26 -45 -104 -60 -72 -97 -100 -124 -153 -199 -212 -204 -237 -175 -123 -83 -18 38 51 42 66 60 71 81 68 103 90 88 58 61 75 83 90 64 106 131 88 107 111 128 141 144 130 148 96 125 160 147 145 123 161 151 130 174 171 183 173 169 167 179 163 160 199 199 186 159 216 202 157 156 150 195 208 191 226 256 243 234 211 272 289 256 -36 -287 108 409 460 377 239 282 235 242 227 183 198 190 190 204 161 161 169 122 108 52 20 25 -15 10 86 136 135 187 246 230 243 274 236 254 286 281 290 284 293 262 232 258 236 261 252 255 246 286 320 254 238 254 249 257 270 313 260 242 257 295 227 223 237 197 239 238 224 214 185 226 206 184 204 213 227 174 158 148 120 116 73 153 129 115 219 185 159 204 161 158 170 -8 -381 -251 253 404 276 153 89 129 74 92 104 3 57 59 15 37 17 -7 -65 -54 -139 -170 -176 -222 -163 -150 -189 -105 -66 0 -20 -32 -6 37 37 -37 -58 11 -13 -60 -85 -72 -60 -21 -54 -73 -93 -70 -14 -54 -59 -52 -50 -18 -67 -55 -98 -104 -46 -20 -85 -84 -29 -69 -91 -99 -80 -105 -107 -85 -85 -62 -109 -122 -82 -91 -141 -121 -120 -128 -194 -215 -219 -213 -181 -118 -150 -163 -114 -158 -188 -112 -126 -200 -426 -764 -456 33 41 -157 -209 -186 -211 -241 -254 -227 -271 -209 -310 -320 -268 -315 -312 -343 -356 -403 -424 -424 -481 -431 -421 -371 -346 -281 -222 -232 -193 -202 -212 -192 -238 -230 -206 -210 -241 -224 -241 -242 -224 -240 -203 -229 -219 -209 -229 -179 -196 -178 -194 -220 -186 -126 -180 -187 -134 -197 -117 -98 -151 -93 -142 -133 -94 -110 -94 -116 -123 -105 -85 -67 -123 -102 -101 -116 -102 -107 -160 -186 -154 -135 -138 -134 -106 -83 -114 -53 -75 -72 -74 -120 -361 -666 -274 122 103 34 -97 -105 -132 -87 -113 -141 -107 -120 -122 -174 -161 -121 -160 -172 -231 -240 -261 -300 -294 -298 -255 -164 -128 -85 -70 -47 -47 -66 -27 -3 -42 -29 -23 -26 -18 -36 -72 -32 -11 -39 -35 -71 -43 39 -67 -65 37 -18 -29 14 19 -34 -23 -3 0 4 17 25 -50 38 23 -4 33 16 0 3 15 47 24 29 38 4 53 27 -22 -53 -36 -4 2 32 9 64 82 48 33 65 57 29 -269 -516 -54 213 232 143 19 31 -7 0 -25 -29 15 -4 -34 -49 -42 -54 -61 -111 -133 -141 -175 -199 -193 -180 -175 -95 -62 -9 20 33 87 
#avL[uV]
8183 7025 6499 5406 4859 3767 3259 2124 1585 500 -17 -5 -37 -37 -3 0 -9 -1 -29 -54 -4 -42 -56 -90 -39 75 20 -112 -136 -43 -1 -44 -28 -49 -21 -24 -20 -18 -32 6 42 -2 -7 41 57 12 55 91 66 44 66 34 26 15 4 23 -25 4 4 -16 1 -20 0 -1 -26 3 21 -20 -6 18 -14 -15 17 -16 -36 -2 4 -27 -8 -7 -30 32 -8 -57 -29 -4 17 -33 -23 -38 -2 -9 -37 17 31 -1 25 40 -2 4 15 -1 2 -3 -79 67 148 -66 -126 -79 4 8 -8 -22 -12 -38 -6 -19 -20 -13 -24 23 -6 -1 4 29 43 52 75 33 41 44 13 -18 -12 3 -12 -24 -10 -43 -35 -4 -12 -23 -21 -21 -1 -31 0 -30 9 0 -38 -5 0 25 -16 -20 -7 -40 19 5 10 -15 -16 6 -12 10 -21 8 34 -12 -16 -6 -18 -9 -18 -2 26 14 28 0 -9 4 13 -45 -2 -15 -58 53 86 -46 -105 -105 -19 13 -13 -8 -5 -14 13 -16 0 7 22 28 31 14 42 42 64 86 83 57 66 54 81 -22 -35 45 -41 -59 11 -6 -1 -24 16 7 -40 -15 -20 -37 -2 21 -21 -18 -3 -15 6 -20 3 4 14 -27 20 -16 -32 0 -17 -16 -22 -9 32 4 5 -23 -17 -8 6 -17 -2 -16 -12 13 28 -14 41 52 -15 -17 5 25 15 -26 -30 88 98 -88 -119 -106 4 -3 -45 -4 19 -21 -54 15 -17 -19 11 -13 -3 -28 40 28 27 88 46 38 62 29 27 -20 -39 -21 -38 -26 -28 -40 -25 -26 -14 -43 -50 -50 -10 -39 -37 -32 -20 0 -7 -30 -58 -51 -44 -41 -20 -58 -59 -59 -24 -35 -64 -33 -53 -98 -69 -62 -71 -81 -58 -58 -51 -71 -60 -89 -79 -70 -57 -92 -70 -55 -44 -17 -49 -67 -35 -56 -63 -76 -118 2 62 -84 -101 -107 -33 -10 -40 -50 -51 -23 -76 -48 -22 -13 -17 -35 -24 -29 -12 -10 18 22 -31 22 34 45 20 -18 -20 -68 -29 -25 -32 -12 -24 -43 -20 -27 -51 -55 -16 -19 13 -9 -43 -20 -26 -43 -8 -2 -13 -18 10 -9 -4 -28 -36 -3 -14 -15 -21 2 20 -26 -3 -14 -8 -31 -16 -11 -13 -26 -47 3 -11 -30 -16 -59 -20 1 8 54 1 -19 4 -37 -30 -57 -41 -118 17 159 -39 -163 -40 -1 -35 -39 -26 -19 -47 -41 17 -41 -28 3 -29 -36 12 25 36 28 36 53 17 22 29 -14 68 -24 -45 -25 -38 -13 -29 -27 -8 -43 -44 -41 -19 -48 -26 -20 -16 -8 -44 -45 -20 -2 -36 -34 -1 -53 -11 -36 -18 11 -20 -10 -41 -23 13 -35 -8 -23 -31 38 8 -38 0 -5 -9 -7 3 -18 -20 2 -35 -37 20 8 11 32 51 -16 -18 -17 -55 -38 -36 -52 95 83 -56 -136 -99 10 -7 -28 -42 -25 -34 -14 2 -41 -10 -5 -31 -30 -18 35 32 8 56 92 55 58 40 21 -23 -61 -17 -9 -18 -20 -2 5 -25 -54 -35 -13 -5 -2 -4 -22 -3 -22 -64 17 -19 -49 -34 -34 -1 -2 -33 -37 -77 -8 14 -33 -46 -13 -12 -41 -36 -3 -57 -21 1 -46 -24 -38 -42 -23 -34 4 18 -39 -63 34 -35 -26 42 5 -15 -34 -3 -34 -49 -20 -106 56 142 -130 -142 -129 -112 -25 -29 -38 -52 -61 -23 -50 -54 -72 -47 -42 -91 -60 -13 -22 -35 10 30 -17 -15 -2 -35 -70 -96 -89 -100 -82 -78 -142 -121 -93 -140 -99 -113 -103 -82 -159 -169 -107 -118 -123 -120 -137 -144 -169 -158 -127 -160 -159 -144 -155 -182 -151 -157 -174 -220 -195 -146 -184 -223 -207 -157 -206 -189 -208 -235 -190 -200 -235 -207 -202 -222 -222 -245 -209 -196 -223 -158 -176 -225 -217 -242 -238 -220 -225 -309 -172 -83 -294 -332 -233 -210 -215 -213 -235 -214 -240 -255 -238 -223 -217 -197 -238 -210 -138 -181 -206 -186 -157 -141 -129 -161 -141 -185 -230 -151 -172 -189 -190 -180 -151 -188 -185 -194 -142 -144 -159 -112 -178 -162 -130 -144 -96 -133 -141 -72 -68 -101 -117 -89 -57 -70 -99 -102 -63 -49 -72 -37 -34 -84 -64 -31 -56 -58 -54 -30 -18 -6 -44 -24 -11 -22 -25 -44 -23 -20 -3 16 19 28 17 -8 -23 31 -15 -15 36 -61 68 203 34 -102 -13 50 29 22 1 -8 42 36 18 23 21 43 26 28 55 83 73 53 93 113 121 99 63 51 34 43 53 19 34 83 66 18 2 16 16 42 27 22 29 40 53 8 20 16 -6 37 16 9 27 40 1 30 42 -22 23 3 2 36 19 24 2 -1 23 14 -1 11 9 8 11 0 -25 21 41 -30 11 24 -2 4 4 0 47 31 60 37 -9 15 5 0 23 -7 -43 90 150 -6 -137 -44 38 48 -24 0 36 -22 -11 31 34 5 -10 27 43 10 52 30 72 121 79 82 84 81 71 35 1 20 6 -13 34 18 18 31 -15 6 56 -42 -1 33 -3 19 23 18 18 -3 -5 22 37 -9 -10 36 -6 14 53 -13 -2 29 -24 -2 48 13 32 -8 21 24 6 6 1 20 0 22 57 -2 7 24 30 52 20 26 20 48 38 50 94 32 7 28 66 34 8 -17 74 178 30 -54 -35 8 -4 28 64 16 33 33 16 25 36 9 34 48 60 46 100 95 54 101 111 78 111 103 36 31 60 52 40 53 46 46 56 42 61 33 54 65 9 60 50 66 103 82 39 52 75 40 60 102 68 92 54 73 57 67 60 52 99 67 74 79 78 82 55 57 65 36 82 127 35 50 112 86 79 36 42 131 40 51 132 89 80 138 124 83 39 86 82 76 84 0 146 241 80 -9 84 127 71 68 47 67 77 81 25 71 82 78 83 42 72 77 66 132 74 110 153 102 107 63 88 66 32 97 76 42 51 29 59 85 40 55 70 80 65 45 60 89 43 78 80 48 80 63 63 94 58 50 50 61 73 60 94 52 57 57 23 54 65 45 17 55 83 46 36 64 43 54 56 44 77 44 15 69 38 45 62 47 81 65 76 103 54 45 52 70 77 35 79 -72 64 254 69 52 3 49 98 35 49 31 53 66 17 74 32 -7 40 45 64 84 84 89 82 78 91 101 66 83 50 65 46 -18 -10 38 49 25 38 53 -5 -12 54 35 4 11 16 10 37 20 8 33 28 34 49 17 10 66 11 28 35 6 29 0 45 39 32 36 2 11 8 47 18 42 21 9 36 15 7 22 20 7 -3 22 61 -9 -13 7 26 3 0 52 48 43 26 40 -9 -22 36 0 -62 60 156 -43 -31 -50 -50 63 41 -8 -22 -10 10 23 4 -13 9 20 27 35 47 13 60 101 87 70 100 89 66 54 1 0 35 -31 -21 2 -28 5 11 -36 36 -13 -29 -7 -9 0 -8 8 -7 -4 13 -22 -55 1 43 -27 -10 7 -19 -15 6 -2 -31 22 42 -28 -6 12 4 10 0 -5 26 6 -23 47 -3 -6 38 -35 5 3 7 -3 7 49 10 1 39 55 35 -8 18 37 8 12 -73 53 181 -79 -51 16 0 34 20 14 0 25 32 3 24 28 76 32 24 72 21 82 90 67 97 129 122 96 92 56 60 45 21 66 68 69 50 40 48 41 41 43 27 47 39 33 56 37 23 35 66 75 77 -8 42 61 72 33 30 31 34 79 88 27 38 76 85 76 66 57 40 44 58 68 67 44 107 65 43 77 42 54 92 81 82 83 68 107 129 96 67 61 100 60 53 55 -30 110 215 48 -10 13 77 71 58 57 29 7 56 21 35 69 39 24 65 73 67 68 100 124 117 129 111 88 96 99 43 82 74 4 40 42 36 25 52 30 20 67 29 -14 49 19 67 0 10 19 -2 70 -25 24 74 38 65 -15 -2 -7 10 -9 4 39 38 11 -36 21 1 -35 20 -13 -28 3 65 -5 -9 -13 6 8 -8 0 -10 3 -17 -19 50 4 16 33 9 -28 -3 2 -21 0 -60 -43 97 0 -87 -111 -91 40 -22 -42 -53 -121 -77 -59 -87 -95 -118 -73 -84 -124 -87 -73 -69 -68 -44 -56 -70 -80 -84 -125 -88 -122 -140 -163 -176 -155 -169 -182 -97 -179 -202 -195 -224 -180 -183 -172 -173 -241 -151 -207 -234 -189 -169 -201 -198 -232 -196 -183 -281 -141 -157 -228 -204 -211 -170 -199 -186 -210 -203 -203 -203 -181 -226 -184 -186 -208 -169 -201 -219 -226 -160 -217 -190 -159 -190 -178 -191 -156 -129 -192 -159 -158 -142 -141 -168 -275 -138 17 -203 -173 -197 -177 -74 -134 -156 -160 -138 -187 -134 -115 -145 -145 -160 -147 -110 -107 -111 -78 -44 -90 -62 19 -31 -108 -79 -100 -110 -100 -106 -139 -94 -91 -109 -73 -91 -97 -65 -127 -47 -22 -93 -56 -48 -65 5 -54 -68 -13 -52 -7 1 -19 18 -28 -36 -5 0 -5 2 17 25 10 17 -24 7 -2 18 15 -9 53 43 42 24 1 70 31 21 8 70 87 62 149 144 38 71 65 53 94 61 33 193 202 47 26 162 154 145 172 93 85 91 105 186 120 103 158 144 162 142 164 201 180 226 181 210 212 164 190 179 157 157 129 177 165 124 139 177 216 145 128 155 172 156 149 176 139 205 192 129 204 204 160 184 163 173 178 189 268 205 184 134 197 241 168 200 210 231 170 204 267 242 185 192 208 215 178 206 231 169 186 222 216 221 213 260 260 153 202 206 185 220 214 236 59 269 371 211 270 160 213 294 204 174 155 232 207 196 246 175 196 203 211 235 171 215 291 271 215 237 277 216 201 193 230 204 132 190 149 164 187 126 149 166 118 140 128 96 132 134 114 121 122 130 74 120 162 72 102 85 59 128 60 -5 42 62 35 61 14 1 35 -14 14 17 2 6 -17 -9 -10 30 -29 -45 -10 -33 0 -50 -24 -22 -37 -24 -40 -13 42 10 -62 -43 -50 -61 -48 -67 -150 25 145 -77 -115 -138 -78 -73 -69 -42 -66 -99 -94 -38 -131 -107 -73 -39 -64 -88 -28 -73 -38 -16 -30 5 31 32 -33 -85 -84 -88 -88 -73 -112 -41 -62 -131 -95 -113 -82 -98 -120 -84 -45 -93 -117 -91 -100 -70 -96 -154 -63 -51 -140 -103 -70 -102 -145 -94 -80 -84 -108 -94 -119 -100 -41 -142 -110 -88 -82 -85 -88 -70 -113 -61 -24 -113 -99 -35 -78 -76 -69 -38 -55 -48 16 -75 -65 -51 -113 -51 -40 -92 -170 -20 107 -100 -117 -101 -125 -31 -67 -131 -86 -45 -69 -83 -153 -110 -33 -74 -100 -59 -50 -19 -8 -35 -26 1 -11 -17 -29 -24 -19 -64 -94 -104 -54 
#avF[uV]
-15934 -13751 -12661 -10553 -9465 -7291 -6277 -4103 -3058 -896 137 166 248 232 201 199 132 141 150 163 130 134 175 193 155 204 578 600 92 -107 -20 159 172 136 164 199 164 179 178 164 136 177 174 158 185 198 178 211 237 245 194 234 219 162 120 89 102 112 92 83 86 98 97 97 110 103 68 99 92 81 80 90 51 94 97 35 51 81 60 68 88 37 50 103 60 64 51 77 72 85 54 58 120 122 76 68 36 31 21 15 -18 -9 25 -24 78 18 240 571 128 -194 -205 -31 35 42 52 79 61 67 66 88 109 63 102 127 131 140 133 180 137 186 191 179 150 137 109 53 34 39 32 72 66 60 52 61 25 60 44 39 6 48 -1 32 44 -2 19 -16 13 32 -15 36 0 4 -14 34 34 -4 8 14 1 1 0 13 25 31 28 38 90 126 81 48 1 27 5 -1 -7 33 16 6 68 36 328 466 45 -146 -204 -34 46 19 27 35 29 44 37 57 21 22 40 94 80 73 95 106 128 120 116 122 74 96 64 -23 18 44 -36 -16 24 32 1 26 42 25 11 56 23 -35 3 57 9 -4 -3 9 -12 -12 0 30 -21 -7 4 16 -1 18 0 -1 -41 -17 -7 36 -35 -43 -18 -31 -11 6 21 42 1 23 -52 -49 -65 -63 -62 -89 -66 -62 -23 -86 208 503 69 -159 -233 -95 0 0 10 30 64 0 65 57 72 94 81 122 95 117 133 121 142 155 153 154 118 125 87 5 11 5 20 -1 -23 6 -10 43 20 20 17 20 19 15 15 -22 -19 22 6 22 11 -3 -24 41 42 50 15 -8 56 61 19 96 81 37 42 79 59 77 44 45 72 87 55 79 115 149 99 93 62 21 -2 12 -13 21 -5 15 64 -83 110 615 386 -182 -315 -114 -30 2 31 19 54 27 32 9 20 56 50 62 76 104 81 115 158 142 172 112 106 126 72 85 -11 -3 0 -40 10 11 -29 10 14 13 -4 -15 -12 -24 -38 -33 -37 2 -75 -74 -46 -73 -68 -51 -64 -65 -41 -68 -62 -62 -69 -42 -102 -51 -47 -59 -60 -42 -43 -84 -30 -39 -74 -48 -40 -11 -31 40 38 9 -1 -86 -47 -43 -81 -21 -60 -29 -50 48 -44 163 530 127 -282 -254 -68 3 -57 -11 -2 21 -9 36 30 21 15 20 5 53 64 90 120 104 121 126 98 124 18 20 1 -26 -3 -35 -37 7 -32 2 0 10 15 39 17 17 8 -6 18 9 -26 -18 9 10 1 11 -27 2 8 -7 -24 -21 4 5 -61 -18 -36 -19 -6 -58 -41 0 -37 -26 -28 -34 -30 -3 27 -30 -13 59 57 44 0 -18 -73 -20 14 -14 10 1 -9 36 21 366 417 30 -193 -199 -21 42 59 13 57 65 49 95 68 90 60 107 123 79 107 138 134 126 136 168 156 132 106 86 47 1 -27 0 -16 -12 -5 46 28 2 -12 21 14 7 11 11 49 0 21 60 16 16 -1 17 32 22 74 19 0 42 33 37 16 23 66 0 73 34 30 42 41 88 28 48 48 11 2 26 132 44 87 100 -4 13 15 4 -10 -5 32 9 87 -27 227 611 146 -80 -119 -73 24 47 109 99 109 156 130 148 134 142 166 169 162 199 197 204 228 261 267 226 232 213 171 168 149 117 95 139 117 91 155 92 138 129 99 171 166 152 121 119 123 109 150 162 142 105 138 182 126 114 142 113 124 144 208 178 133 160 207 184 135 180 183 182 192 161 169 216 177 186 212 194 253 254 212 233 148 153 152 140 164 145 137 137 213 175 449 627 151 -159 -84 118 111 144 153 130 196 152 108 147 111 173 176 134 181 190 210 242 203 230 262 183 205 182 95 80 37 52 12 2 23 22 31 -1 21 13 -35 50 22 -39 -7 -56 -20 -24 -120 -111 -105 -89 -106 -143 -119 -111 -119 -120 -160 -137 -130 -160 -152 -153 -160 -148 -150 -151 -188 -173 -181 -168 -179 -202 -158 -171 -153 -136 -112 -74 -132 -157 -214 -170 -178 -197 -222 -208 -152 -238 -126 -165 -11 287 -66 -440 -418 -247 -202 -178 -148 -186 -163 -157 -185 -168 -180 -139 -129 -152 -140 -150 -94 -77 -87 -76 -70 -52 -94 -139 -168 -223 -197 -213 -277 -262 -228 -188 -201 -193 -194 -179 -169 -180 -174 -183 -153 -166 -181 -160 -173 -165 -169 -184 -172 -173 -185 -173 -159 -162 -136 -164 -180 -176 -159 -138 -162 -143 -160 -163 -164 -142 -117 -155 -149 -90 -145 -165 -113 -106 -111 -119 -88 -47 -36 -69 -92 -129 -109 -102 -116 -74 -95 -108 -69 -45 -58 238 325 19 -246 -317 -124 -40 -62 -44 4 6 -10 -9 0 20 10 10 44 32 59 67 73 103 110 125 98 83 46 20 2 -11 8 -50 -41 -20 -37 27 -9 -19 13 -16 33 47 4 48 26 14 53 31 41 32 41 58 35 59 32 31 53 37 50 93 63 17 65 37 82 75 57 57 58 61 58 81 37 31 52 43 37 28 29 53 94 121 47 66 22 -28 53 21 -16 -41 44 -1 34 -21 145 548 211 -107 -196 -40 49 -2 96 47 73 90 78 104 97 102 108 128 135 100 157 206 169 183 228 171 157 174 108 55 36 9 4 -2 -3 -8 -22 1 23 12 22 52 -19 13 6 -12 -13 -25 -14 -26 0 -33 -36 -18 -57 29 -3 -20 -8 -3 8 -50 -29 10 -21 -5 -17 19 10 6 3 -10 -25 23 34 -13 -19 11 24 41 -25 43 98 8 30 41 -25 -50 -37 16 -52 -51 -20 -47 39 -13 218 521 90 -310 -241 -40 -27 -4 41 -1 -14 68 45 32 47 68 59 72 77 167 126 177 209 140 176 165 138 103 77 75 -19 0 -10 2 14 -16 -8 16 -3 14 -20 -15 3 1 -25 6 -25 -26 -19 -37 -20 -20 -67 -25 -49 -46 -16 -61 -42 -51 -51 -42 -39 -22 -27 -34 -16 25 -21 -32 -6 -1 -13 4 -9 -1 4 -24 17 48 -29 22 8 7 66 40 70 34 -43 19 15 -31 -59 -56 -1 -70 51 -53 37 536 210 -190 -297 -151 -14 -38 20 -5 -12 12 -5 28 54 47 41 31 52 72 95 145 141 162 172 190 138 127 102 29 51 63 -25 -17 -13 -29 2 20 13 18 7 30 18 23 16 0 -7 -4 -16 2 -22 -37 1 -21 -42 -4 -79 -19 3 -50 -17 -43 -23 -48 -50 7 -30 -20 -55 -24 -15 -33 -17 -31 -1 -11 -21 8 -3 19 -6 -42 13 15 -8 72 96 69 35 -20 -28 -7 -26 0 0 -37 -31 33 -79 41 594 263 -148 -176 -223 -71 6 25 28 17 12 22 43 1 37 41 21 35 86 68 51 106 139 86 119 100 77 93 39 -14 3 -5 -17 -19 -44 -30 15 -34 -19 0 4 -2 -24 17 1 -27 14 -39 -11 15 -48 -83 -31 7 -44 -57 -31 -44 -61 -47 -45 -79 -28 -40 -82 -68 -58 -48 -55 -89 -53 -63 -87 -79 -43 -93 -55 -53 -80 -44 -29 -17 -6 2 14 -70 -86 -61 -72 -86 -104 -70 -83 -13 -110 33 580 131 -287 -287 -214 -115 -75 -30 -47 -60 -56 -68 -43 -72 -59 -34 -55 -20 -3 -5 23 32 26 19 60 51 42 -55 -86 -73 -116 -136 -194 -132 -71 -118 -84 -113 -94 -63 -101 -69 -60 -80 -69 -96 -79 -107 -103 -102 -60 -109 -89 -112 -89 -86 -104 -77 -120 -153 -92 -97 -128 -150 -118 -153 -122 -123 -136 -126 -116 -115 -121 -161 -142 -131 -131 -123 -111 -143 -110 -92 -80 -75 -109 -175 -131 -108 -138 -160 -109 -123 -124 -36 -156 20 537 132 -312 -364 -200 -69 -99 -86 -32 -67 -53 -34 -62 -74 7 -32 -43 -27 -13 8 29 40 52 40 61 57 -28 -41 -72 -98 -54 -107 -109 -96 -101 -129 -79 -58 -71 -93 -35 -95 -83 -86 -43 -50 -47 -47 -76 0 -65 -83 -45 -115 -18 -23 -28 -47 -7 -23 -75 -48 -21 -6 -42 -33 11 -43 -16 -12 -9 -74 -7 -32 0 -18 -54 -17 -7 -7 -22 53 83 8 29 6 -48 -25 -2 -17 -17 -7 -9 29 -22 65 505 389 15 -133 -205 11 76 63 144 115 97 153 122 164 177 145 196 184 174 194 221 243 269 275 317 259 248 172 140 101 112 133 88 108 111 15 110 99 105 136 122 122 96 89 150 86 101 103 101 62 89 70 90 51 53 133 44 32 67 56 65 47 38 34 79 28 32 20 8 57 16 7 44 9 2 20 39 0 0 -12 1 34 28 -3 -51 -62 -33 -97 -84 -92 -69 -103 -14 -117 18 491 65 -212 -282 -303 -105 -125 -75 -103 -39 -48 -83 -45 -45 -43 -13 -50 -62 -11 -30 -8 69 36 -3 21 22 -57 -35 -77 -145 -124 -104 -179 -145 -144 -212 -189 -193 -219 -166 -215 -209 -164 -180 -212 -187 -261 -192 -217 -306 -202 -231 -256 -229 -276 -242 -276 -255 -242 -251 -297 -245 -249 -248 -214 -214 -246 -222 -232 -200 -216 -260 -228 -247 -238 -228 -245 -190 -169 -128 -186 -161 -216 -279 -260 -258 -256 -224 -257 -255 -220 -204 -185 179 204 -279 -566 -430 -298 -262 -222 -160 -184 -209 -190 -177 -163 -174 -182 -179 -135 -98 -147 -41 -56 -4 11 -48 -14 0 -73 -91 -158 -109 -144 -159 -161 -177 -139 -158 -156 -114 -95 -87 -83 -89 -154 -84 -131 -98 -58 -189 -149 -100 -132 -112 -154 -110 -133 -169 -101 -138 -114 -111 -157 -139 -130 -119 -131 -90 -99 -160 -156 -99 -129 -98 -93 -96 -115 -89 -47 -66 -94 -21 -6 6 -47 -79 -35 -51 -42 -70 -61 -26 -123 66 -69 54 552 185 -194 -255 -136 4 12 55 8 47 31 25 33 113 117 56 80 140 128 64 132 208 186 204 215 219 178 116 77 89 41 44 37 24 65 89 63 88 69 112 127 108 108 109 118 81 98 144 89 66 106 94 92 134 92 126 131 137 125 99 136 103 97 115 107 127 115 91 104 111 126 134 74 115 112 134 135 101 166 126 129 197 210 194 148 95 124 168 127 164 114 124 139 224 94 215 744 390 16 -25 38 167 148 198 187 208 179 239 228 195 213 226 210 188 245 270 257 292 294 262 265 289 250 212 174 158 121 160 107 90 134 137 143 105 125 138 121 117 125 129 130 135 141 139 115 131 117 103 122 99 87 126 128 104 88 109 89 101 75 91 104 86 92 49 69 88 67 98 13 0 83 61 30 25 49 92 91 92 53 -18 43 55 -12 30 2 7 26 113 -9 162 616 171 -111 -107 -111 47 100 93 44 94 112 137 114 68 124 143 114 112 130 142 177 201 197 204 198 204 119 81 73 74 71 -33 
