ADC Sampling rate (Hz):
100
Fragment duration (sec):
21
Number of samples exported by each lead:
2099

#I[uV]
-2450 -2165 -1873 -1657 -1441 -1135 -974 -618 -445 -199 154 64 66 115 71 100 32 73 172 53 120 96 55 97 111 115 88 103 146 82 94 172 95 140 186 173 154 79 76 141 97 63 164 424 569 160 -59 35 56 94 92 66 100 133 125 147 116 129 184 234 280 306 253 327 276 201 277 177 145 169 135 73 72 149 133 103 111 69 57 138 134 63 81 89 78 110 95 39 59 114 63 95 90 31 98 45 95 84 36 68 82 97 51 -1 46 91 70 71 77 39 70 79 69 119 82 149 115 71 111 78 108 38 -26 69 62 153 415 378 28 -90 -143 -51 81 66 34 34 84 69 158 99 28 160 148 211 282 263 269 260 256 157 139 104 68 76 80 84 66 98 49 98 99 74 106 52 53 62 84 56 22 31 64 34 12 23 77 30 34 54 -12 16 27 -5 74 67 12 48 10 6 61 5 53 105 61 93 -11 -6 -18 8 -53 -51 178 383 311 -27 -205 -193 -47 -19 -40 -28 -25 -8 -17 18 -2 55 54 58 88 164 144 207 208 64 75 61 1 -46 -101 -39 -2 -49 -35 -76 -70 -46 6 -32 -136 -4 -80 -91 -29 -101 -56 -105 -112 11 -93 -100 -79 -96 -51 -99 -75 -3 -33 -85 -123 -87 -42 -69 -82 -85 37 -41 -111 -14 -27 0 -75 -119 -50 -40 -118 -180 60 332 203 -135 -184 -178 -134 -107 -125 -69 -63 -91 -49 -74 -91 -35 -35 18 69 125 109 170 97 44 23 -68 -40 -44 12 -99 -100 -77 -100 -49 -109 -45 -10 -46 -94 -80 -79 -76 -91 -149 -94 -51 -12 -80 -82 -94 -43 -59 -106 -107 -63 -105 -57 -18 -99 -39 -29 -61 -65 -161 -39 -6 -103 -73 -74 -43 -27 -12 -36 -102 -53 -11 30 6 -48 -16 -7 -90 -72 -17 -101 -53 250 379 82 -213 -225 -31 -6 -41 -30 -112 -42 13 -26 26 50 29 58 56 170 251 192 200 240 140 125 115 -25 -14 0 46 55 70 71 6 16 9 28 41 8 63 77 15 29 8 46 111 6 0 17 8 77 76 24 72 94 69 65 34 83 8 76 108 11 68 87 93 69 65 75 103 166 169 109 40 104 104 52 55 85 53 97 228 423 308 -10 -123 -113 -7 95 62 112 57 90 94 37 150 120 122 175 241 321 284 305 289 247 259 147 76 164 92 73 154 38 105 149 129 152 85 115 134 101 70 116 140 52 88 147 11 55 90 70 75 65 89 75 58 82 74 32 39 101 66 39 109 70 73 71 51 61 69 66 -57 -6 2 25 358 465 44 -182 -110 -66 28 -47 -42 79 48 -23 51 23 27 129 140 110 118 213 187 219 198 53 49 69 -8 54 -36 -80 35 4 -31 -40 -21 -14 -75 -13 27 -97 -14 3 -46 -65 -30 -91 -14 16 -125 -42 6 -70 -72 8 -23 -60 -5 -9 -19 -22 -82 -27 -22 -1 -13 -52 21 -73 -15 6 -12 89 -45 0 56 -8 -59 13 -17 -35 -62 -114 110 401 366 19 -173 -151 7 -6 -157 -67 -40 -9 -10 -32 -41 6 74 45 111 154 180 157 177 160 144 49 -127 -5 10 -39 -3 -22 -61 -73 18 -12 -61 -2 -5 -38 -61 -60 -54 -16 -9 -68 -46 -76 -27 -34 -124 -39 -67 -31 -8 -36 -13 -60 -59 -87 -70 -3 -66 -56 29 -50 -16 -13 -85 -38 10 50 -30 -21 25 16 -7 27 84 26 22 -13 -97 -22 -19 -76 133 321 229 2 -175 -172 -75 -62 -26 -32 -43 16 -7 -2 14 -21 43 60 108 252 261 185 180 178 143 80 39 9 -1 0 29 5 -25 -6 26 0 -16 7 14 -4 32 -4 -37 5 -20 5 6 -50 -13 22 25 15 25 -41 -2 -4 -37 34 21 20 -39 -2 23 -25 14 23 33 89 49 20 12 19 62 -66 -9 68 -167 -15 306 347 104 -164 -246 -70 -4 -92 -20 -12 -21 -36 13 49 71 -7 31 135 151 189 192 197 197 188 94 58 35 34 11 -24 58 -1 14 91 29 30 57 -40 26 79 -8 43 16 -9 29 41 45 17 68 -50 -29 28 39 70 -37 59 66 -15 88 37 3 14 35 32 12 10 -13 27 76 30 102 85 47 61 97 79 68 4 -6 28 -105 33 360 550 245 -94 -75 -65 -27 44 32 -9 93 49 50 40 18 122 110 126 197 195 240 255 263 196 140 108 76 43 46 14 6 53 8 80 63 72 47 59 33 -19 52 112 74 4 31 11 47 25 0 68 59 81 32 11 4 21 63 19 102 83 21 27 29 65 -5 50 60 73 55 58 37 -4 46 70 51 48 135 70 92 120 71 17 17 89 -11 -82 55 365 451 213 -108 -185 -40 24 -29 -44 38 1 16 29 77 96 55 89 134 150 246 261 233 315 188 114 129 44 34 51 8 28 42 57 18 1 28 50 17 54 76 -42 -10 16 -8 73 24 -36 21 7 -5 -31 -36 -22 30 8 17 48 -5 -14 37 0 -51 7 -1 32 -13 -61 42 26 28 55 66 71 2 40 0 -31 7 -24 -103 36 297 413 160 -194 -224 -142 -20 -81 -56 24 -108 -55 17 5 0 -17 31 43 66 181 143 144 179 94 16 -15 -40 -17 -66 -115 -67 -67 -85 -117 -107 -97 -71 -71 -118 -105 -95 -125 -129 -164 -99 -69 -197 -163 -58 -142 -201 -167 -135 -209 -225 -167 -215 -223 -189 -183 -165 -237 -247 -193 -327 -223 -179 -249 -217 -205 -230 -213 -173 -241 -258 -289 -326 -233 -253 -371 -348 0 144 -136 -448 -427 -338 -342 -327 -311 -316 -247 -275 -341 -291 -311 -235 -254 -213 -191 -136 -57 -77 -63 -211 -190 -207 -314 -248 -266 -296 -317 -325 -273 -262 -309 -260 -240 -307 -283 -218 -247 -314 -292 -249 -264 -262 -262 -304 -361 -258 -238 -294 -236 -277 -271 -281 -261 -213 -276 -286 -226 -229 -227 -235 -228 -249 -261 -269 -220 -176 -245 -210 -185 -167 -200 -229 -126 -190 -137 -137 -163 -110 -86 -99 -136 -168 -211 -138 -224 -136 70 306 201 -203 -248 -226 -191 -118 -90 -160 -126 -73 -93 -32 -121 -77 -4 33 18 59 159 141 189 83 69 76 0 -23 -48 -24 -49 31 -6 -64 -13 -17 20 -39 23 69 -5 18 -26 19 21 27 42 -20 86 11 27 45 -31 28 43 43 52 48 38 17 106 55 30 72 59 24 74 111 56 118 58 67 88 85 71 47 170 157 167 123 134 144 121 109 79 110 101 131 29 123 458 458 180 -62 -61 -9 51 126 102 160 126 58 133 76 132 171 125 278 315 279 306 330 334 232 238 248 206 105 77 101 105 72 118 161 122 67 90 125 132 135 65 36 89 108 49 97 92 90 45 12 86 88 42 48 74 73 40 51 50 21 35 35 30 44 29 69 85 4 72 56 55 97 34 97 130 88 58 -19 -34 36 0 21 127 366 445 50 -135 -115 -33 21 44 -12 40 129 -15 33 87 58 105 97 121 260 262 213 247 257 229 159 74 47 82 82 14 88 109 61 90 52 95 74 45 145 81 124 131 -10 84 92 71 108 85 128 120 70 35 161 151 70 112 116 73 147 196 58 96 141 156 163 179 147 169 198 151 133 111 232 253 221 193 216 225 162 94 186 176 126 267 603 568 235 82 -95 191 270 139 210 131 137 218 247 199 220 273 266 302 366 479 387 312 439 366 369 325 296 213 140 226 205 271 239 218 184 246 258 167 243 200 226 242 198 179 261 223 140 254 230 196 207 207 187 225 193 137 213 198 184 190 190 212 204 147 204 201 266 200 136 222 169 249 237 239 281 264 253 223 238 190 192 237 137 97 192 432 652 403 50 -34 41 177 201 152 127 139 215 238 169 142 224 243 238 277 383 397 339 380 368 308 218 194 177 132 155 119 161 130 93 140 151 115 165 136 113 154 28 110 183 86 109 106 81 74 80 73 73 153 67 65 74 115 144 3 108 89 17 98 55 97 81 29 114 126 63 78 114 75 60 87 86 4 87 9 -68 212 401 318 25 -54 -90 -35 21 -77 6 36 27 11 25 60 45 46 62 142 136 213 256 245 217 153 71 80 92 16 -1 -30 -14 -12 15 0 34 33 -33 -6 9 7 -35 15 -30 -76 -50 -11 4 -58 -12 -57 -65 -49 -72 -5 -94 -47 -54 -30 4 -155 -86 -66 -77 -78 -54 -61 -59 -24 -38 -15 -10 -100 -76 -76 -88 -29 -105 -132 -159 48 321 189 -129 -256 -207 -123 -97 -111 -175 -92 -107 -121 -131 -145 -88 -16 -37 -48 18 56 116 95 38 16 -48 0 -74 -264 -132 -99 -135 -120 -183 -146 -110 -106 -124 -260 -182 -99 -190 -142 -116 -140 -163 -103 -140 -288 -184 -175 -165 -163 -153 -138 -204 -192 -200 -215 -150 -170 -180 -147 -199 -192 -193 -174 -155 -164 -153 -171 -140 -116 -131 -74 -76 -181 -174 -155 -117 -186 -153 -206 -136 260 194 -127 -258 -284 -180 -183 -167 -181 -180 -80 -135 -171 -120 -96 -78 -79 -28 19 23 111 145 89 23 64 -19 -75 -70 -106 -209 -125 22 -180 -134 -24 -108 -59 -70 -96 -89 -75 -78 -114 -65 -88 -106 -81 -71 -26 -140 -126 -16 -78 -109 -64 -103 -62 4 -81 -113 -48 -33 -131 -76 -57 -71 -50 -3 4 -19 -21 -44 21 16 0 -42 -93 10 -50 -54 -117 -30 212 270 147 -118 -289 -179 -76 -72 -70 -107 -23 -28 -66 -50 -52 -52 -8 23 85 161 151 128 105 104 70 53 -27 -66 -123 -144 -93 -114 -96 -116 -137 -121 -180 -183 -45 -125 -165 -143 -181 -173 -170 -245 -170 -94 -244 -237 -186 -242 -181 -199 -296 -265 -182 -271 -289 -250 -259 -232 -240 -274 -349 -238 -186 -254 -238 -231 -242 -304 -254 -276 -324 -258 -357 -244 96 48 -237 -479 -424 -278 -309 -252 -252 -249 -242 -355 -232 -201 -187 -155 -172 -92 -37 -91 -11 24 -3 33 -59 -103 -80 -71 -123 -41 -75 -37 9 -35 3 -10 12 0 0 0 0 0 0 0 0 -2 -2 0 0 0 0 0 0 0 0 2 1 1 1 1 1 1 1 1 1 1 0 0 0 0 0 0 0 0 0 0 -3 -3 -3 3 -14 12 142 19 -18 15 -11 3 -7 2 2 2 2 2 2 2 1 1 1 1 1 1 1 1 1 1 0 0 0 0 0 0 0 0 0 0 4 4 4 12 11 20 26 39 74 60 88 96 142 178 171 177 267 244 322 312 331 342 281 399 391 396 372 411 423 381 389 419 379 393 394 402 448 458 463 413 398 437 338 360 429 286 302 494 722 695 346 201 134 
#II[uV]
2890 2694 2262 2079 1651 1458 1006 770 406 123 -248 -256 -301 -238 -332 -264 -235 -326 -285 -289 -230 -242 -271 -245 -231 -239 -288 -222 -126 -164 -140 -98 -153 -172 -244 -252 -195 -314 -336 -210 -266 -166 -209 71 489 -96 -590 -644 -465 -243 -211 -225 -234 -138 -151 -139 -72 -85 -1 87 119 182 225 225 150 86 65 25 -16 -82 -80 -109 -126 -61 -93 -59 -25 -82 -29 -41 -110 -99 -93 -115 -102 -81 -80 -121 -153 -84 -91 -90 -125 -110 -43 -94 -60 -63 -96 -86 -61 -51 -44 -32 -21 -49 -58 -45 -32 26 -5 16 26 87 114 114 86 -1 10 10 -32 -75 3 -7 11 49 368 519 -42 -316 -352 -257 -45 -27 -23 0 46 63 94 122 91 121 200 266 351 336 284 284 261 221 130 72 36 -29 3 71 -27 11 84 36 63 64 1 -40 -34 2 -28 -48 -93 -80 -108 -106 -122 -187 -135 -117 -135 -156 -193 -225 -176 -185 -204 -185 -218 -169 -181 -191 -163 -118 -138 -148 -164 -250 -239 -264 -337 -235 -288 -213 -145 235 280 -310 -617 -683 -410 -327 -249 -211 -254 -176 -186 -150 -171 -114 -48 -8 42 89 128 101 36 0 -42 -125 -143 -191 -270 -246 -217 -285 -223 -255 -254 -234 -233 -243 -296 -280 -335 -291 -314 -361 -332 -383 -316 -339 -342 -359 -433 -377 -377 -369 -415 -360 -329 -395 -444 -441 -366 -346 -321 -337 -243 -282 -297 -286 -438 -388 -393 -472 -419 -407 -431 -420 -334 217 203 -499 -874 -892 -597 -497 -480 -426 -439 -445 -443 -407 -369 -347 -322 -238 -185 -91 -88 -108 -81 -150 -299 -349 -348 -410 -412 -433 -446 -424 -424 -385 -446 -397 -379 -383 -374 -463 -426 -422 -452 -415 -428 -471 -395 -445 -476 -470 -457 -434 -450 -421 -417 -432 -402 -424 -422 -399 -390 -324 -378 -441 -341 -447 -438 -373 -393 -294 -334 -327 -312 -299 -266 -238 -222 -294 -308 -346 -366 -392 -319 -317 -261 -299 -31 402 -168 -628 -670 -526 -353 -323 -257 -305 -203 -163 -205 -85 -82 -94 -73 0 144 204 183 109 191 99 12 -11 -77 -66 -129 -175 -99 -30 -84 -47 -22 -74 -77 -48 -72 -53 -51 -79 -17 -88 -117 -9 -59 -119 -91 -16 -82 -101 -28 -17 5 -22 -52 -9 47 -25 -44 28 27 -37 1 38 75 99 71 135 184 186 114 15 49 72 0 23 64 76 87 180 653 447 -68 -266 -288 -105 31 65 111 122 89 144 167 215 241 243 311 358 459 456 437 453 394 375 263 220 259 147 139 221 175 225 245 260 232 200 234 259 216 160 213 268 202 163 203 152 162 191 219 161 188 240 186 202 177 188 168 160 272 310 361 298 236 271 216 157 196 196 183 187 88 242 263 561 941 300 -236 -278 -15 231 191 154 228 248 230 280 290 344 411 463 483 512 608 623 610 546 419 332 354 291 260 234 223 271 259 237 253 264 273 289 280 233 209 248 157 204 266 174 174 230 190 144 178 206 217 182 159 208 171 185 232 188 237 179 139 196 229 191 165 251 238 238 330 330 318 297 264 254 187 137 197 173 153 169 248 281 795 830 165 -283 -286 100 128 132 173 144 222 229 244 258 299 335 395 461 538 623 533 546 506 431 357 261 274 247 179 245 235 170 294 245 197 237 285 291 182 219 244 163 217 219 165 172 158 210 181 136 182 128 169 202 183 190 178 154 128 113 139 165 139 187 159 168 132 92 125 159 199 134 235 246 209 234 197 146 84 173 94 86 126 32 152 259 552 590 71 -199 -268 -159 52 63 43 112 117 128 156 157 162 183 238 315 353 430 391 328 353 260 179 145 87 49 -12 4 61 -1 -10 59 -9 -14 91 -45 -43 23 -86 -11 -43 -135 -88 -63 -103 -103 -124 -118 -34 -139 -163 -103 -154 -160 -108 -140 -149 -112 -144 -155 -166 -81 -24 -57 -41 -41 -130 -238 -189 -106 -232 -279 -220 -177 -222 94 464 -97 -550 -660 -460 -359 -341 -199 -249 -235 -224 -174 -188 -109 -87 -89 26 30 108 121 73 115 27 -65 -76 -162 -202 -244 -229 -174 -229 -232 -177 -177 -181 -161 -198 -184 -126 -225 -246 -199 -237 -266 -224 -227 -245 -231 -245 -200 -251 -291 -236 -247 -280 -221 -219 -254 -254 -259 -259 -233 -284 -269 -260 -286 -180 -184 -142 -89 -127 -163 -216 -229 -288 -277 -242 -299 -290 -136 -261 34 724 170 -609 -713 -470 -333 -265 -215 -287 -185 -184 -198 -131 -106 -38 19 -7 99 239 193 180 187 70 60 49 -104 -167 -155 -140 -148 -205 -134 -9 -89 -125 -100 -133 -157 -99 -107 -106 -76 -116 -149 -157 -120 -55 -131 -136 -67 -37 -81 -121 -93 -56 -44 -70 -55 15 -23 -101 -65 -30 -24 -37 -18 44 -34 -64 -34 27 -31 44 163 44 58 16 -16 48 17 -70 -30 64 -61 -16 19 340 737 167 -270 -368 -236 -13 10 45 72 106 102 129 198 218 291 283 307 439 549 501 523 556 436 364 306 262 207 202 205 202 217 230 215 220 271 268 212 250 297 191 164 238 178 262 232 130 222 196 196 162 184 223 240 278 217 183 240 208 236 277 268 182 225 333 204 235 368 328 343 396 378 341 262 223 267 218 184 170 314 262 535 928 385 -27 -190 -169 132 192 181 213 220 190 264 217 282 294 375 396 360 535 499 499 496 403 361 222 182 179 85 59 79 71 119 101 102 78 96 109 59 86 90 2 -14 39 -7 -9 -10 -84 -4 -1 -93 -134 -48 -47 -206 -138 -66 -182 -189 -97 -151 -207 -192 -144 -178 -223 -112 -136 -136 -125 -152 -126 -232 -307 -287 -291 -317 -299 -339 -240 -303 -38 526 21 -662 -849 -678 -438 -378 -378 -447 -319 -322 -344 -277 -366 -248 -216 -154 -103 -45 58 45 -42 -152 -217 -273 -359 -398 -414 -422 -458 -480 -394 -455 -444 -385 -493 -406 -380 -413 -430 -517 -518 -456 -506 -470 -492 -606 -520 -478 -484 -445 -538 -546 -473 -498 -524 -496 -464 -511 -498 -460 -500 -498 -482 -444 -417 -464 -469 -411 -463 -443 -396 -399 -433 -432 -379 -351 -301 -290 -356 -356 -368 -359 -352 -416 -422 -363 -335 -322 -167 407 198 -456 -759 -744 -404 -311 -271 -279 -245 -232 -250 -156 -143 -132 -82 22 3 80 176 227 213 158 116 21 -58 -102 -124 -100 -116 -62 -64 -87 -94 -38 34 -25 -1 -4 -43 -19 -69 -19 16 -41 -11 -28 -20 26 -11 0 -8 20 48 -19 31 20 20 124 108 58 48 77 74 86 107 129 128 134 95 122 118 128 161 140 170 309 280 222 251 214 172 209 175 153 196 134 264 269 542 851 262 -26 -124 -85 156 251 262 262 337 253 293 375 372 361 412 558 581 596 649 700 617 550 575 488 411 371 276 338 359 292 381 375 345 352 362 376 367 372 322 360 299 320 326 280 263 264 314 244 251 307 214 246 313 229 197 207 240 222 196 205 190 211 198 208 198 225 196 203 259 237 236 245 191 172 131 28 56 146 60 212 277 549 756 133 -280 -310 -148 47 60 79 45 89 86 100 147 132 185 213 229 405 417 372 375 352 299 210 105 17 -11 -44 -69 -64 -39 7 -30 -30 9 -61 -103 -16 -80 -36 -83 -183 -92 -148 -148 -142 -165 -140 -154 -205 -222 -119 -160 -206 -175 -170 -179 -151 -164 -181 -158 -174 -232 -139 -153 -195 -151 -191 -102 -102 -115 -28 -106 -163 -193 -150 -192 -272 -243 -135 -197 -190 -131 385 594 -146 -621 -696 -354 -135 -276 -210 -173 -158 -120 -87 -145 -102 -7 -21 3 119 211 237 146 198 96 1 48 -82 -164 -152 -150 -141 -78 -48 -102 -81 -28 -28 -19 -43 -75 -102 -70 -23 -40 -18 -67 -101 -61 -40 -25 -53 -60 -24 -29 -2 -14 -30 1 1 -31 33 40 20 26 78 63 72 62 46 70 61 139 195 152 181 165 117 89 64 55 76 96 112 128 78 310 875 381 -111 -184 -242 56 84 120 174 151 234 231 233 233 240 352 366 397 575 588 520 558 510 357 367 343 255 222 185 139 198 225 202 238 251 263 289 266 233 184 181 222 233 244 197 147 214 218 167 197 186 207 154 115 216 211 210 157 169 192 140 202 173 170 223 250 294 279 323 336 283 184 161 242 164 124 216 200 231 314 742 653 106 -43 -181 -5 194 204 163 215 273 256 307 320 349 389 392 429 572 640 576 626 615 536 439 351 365 316 247 253 241 196 310 305 217 268 290 262 230 189 211 249 187 166 175 212 174 89 182 127 91 103 146 200 39 58 138 118 76 46 76 55 39 28 40 71 104 102 57 55 -7 -42 -15 -112 -98 -68 -139 -64 -32 153 728 659 40 -439 -376 14 1 52 93 93 148 138 138 175 208 262 312 337 406 487 540 502 454 373 285 260 187 114 58 69 127 98 84 133 110 82 121 81 81 87 28 34 48 15 16 62 14 -54 -2 -28 14 7 35 12 -103 -35 -31 -46 -11 -32 7 37 -59 -25 -27 -40 -12 -12 -33 16 100 82 64 39 15 -57 -65 -32 -42 -3 -15 38 17 373 741 122 -326 -463 -297 -95 -98 -23 -19 29 -17 -13 77 58 76 137 167 240 356 359 358 347 258 196 107 98 0 -62 -53 -53 -35 -73 -13 26 -46 -1 4 -13 -49 -71 -5 -65 -119 -69 -94 -105 -92 -68 -94 -146 -41 -105 -138 -98 -122 -94 -84 -100 -131 -99 -124 -125 -98 -83 -57 -133 -66 -21 2 1 -48 28 -64 -97 -81 -154 -90 -111 -154 -75 -73 89 602 183 -264 -400 -468 -195 -191 -86 -92 -54 1 -118 -21 -41 -25 61 116 154 178 287 259 206 204 88 74 50 -60 -104 -164 -166 -178 -175 -169 -129 -141 -177 -159 -107 -169 -214 -197 -222 -294 -280 -286 -311 -271 -328 -389 -357 -380 -403 -358 -467 -499 -408 -497 -530 -488 -540 -588 -549 -516 -523 -576 -550 -564 -639 -707 -803 -806 -829 -864 -881 -931 -880 -889 -543 -334 -922 -1463 -1546 -1313 -1229 -1223 -1177 -1246 -1235 -1260 -1278 -1313 -1284 -1271 -1278 -1226 -1223 -1169 -1186 -1185 -1223 -1369 -1408 -1624 -1686 -1673 -1751 -1712 -1782 -1733 -1755 -1755 -1765 -1760 -1760 -1760 -1760 -1760 -1760 -1760 -1760 -1760 -1760 -1762 -1762 -1762 -1762 -1762 -1762 -1762 -1762 -1762 -1762 -1759 -1760 -1760 -1760 -1760 -1760 -1760 -1760 -1760 -1760 -1760 -1762 -1762 -1762 -1762 -1762 -1762 -1762 -1762 -1762 -1762 -1765 -1765 -1765 -1758 -1776 -1749 -1619 -1742 -1780 -1746 -1773 -1758 -1769 -1759 -1759 -1759 -1759 -1759 -1759 -1759 -1760 -1760 -1760 -1760 -1760 -1760 -1760 -1760 -1760 -1760 -1762 -1762 -1762 -1762 -1762 -1762 -1762 -1762 -1762 -1762 -1757 -1757 -1757 -1750 -1750 -1741 -1735 -1722 -1687 -1701 -1677 -1669 -1623 -1586 -1583 -1577 -1511 -1496 -1397 -1418 -1354 -1367 -1377 -1290 -1271 -1259 -1190 -1168 -1185 -1157 -1108 -1078 -1042 -958 -941 -870 -793 -783 -827 -913 -853 -775 -809 -734 -765 -724 -646 -586 -93 -76 -635 -853 -843 
#III[uV]
5340 4859 4135 3737 3093 2594 1981 1389 851 322 -403 -321 -367 -353 -403 -365 -267 -400 -458 -343 -350 -339 -327 -343 -343 -354 -377 -326 -272 -247 -235 -271 -248 -313 -430 -425 -350 -393 -413 -351 -364 -229 -374 -353 -79 -256 -531 -680 -521 -337 -303 -291 -335 -271 -276 -287 -189 -214 -185 -146 -161 -123 -27 -101 -125 -115 -212 -152 -162 -252 -215 -182 -198 -210 -226 -162 -137 -151 -87 -180 -244 -162 -175 -204 -180 -191 -176 -161 -213 -198 -155 -186 -215 -142 -141 -140 -156 -148 -132 -155 -144 -149 -95 -31 -68 -140 -128 -117 -110 -12 -76 -62 -42 -31 32 -35 -28 -72 -101 -67 -141 -113 30 -76 -50 -104 -46 140 -71 -226 -209 -205 -127 -94 -58 -35 -37 -5 -64 22 63 -38 51 54 69 72 15 23 4 63 -9 -31 -31 -105 -77 -13 -94 -87 34 -62 -36 -10 -104 -93 -87 -60 -113 -105 -115 -112 -172 -141 -135 -210 -212 -147 -169 -211 -180 -242 -204 -179 -279 -253 -230 -217 -191 -198 -225 -124 -192 -253 -226 -343 -227 -258 -318 -243 -234 -162 -323 -147 -30 -282 -412 -489 -363 -307 -208 -182 -228 -168 -169 -169 -169 -169 -102 -67 -46 -74 -16 -106 -172 -65 -117 -187 -144 -144 -169 -207 -215 -235 -187 -179 -184 -188 -239 -211 -160 -276 -255 -200 -285 -260 -275 -277 -204 -350 -249 -258 -353 -280 -325 -270 -340 -357 -296 -310 -320 -353 -324 -276 -239 -251 -281 -241 -185 -272 -410 -389 -317 -353 -369 -367 -313 -239 -395 -114 0 -363 -689 -713 -463 -389 -355 -357 -376 -354 -393 -333 -277 -311 -286 -257 -254 -216 -197 -279 -178 -195 -323 -280 -308 -366 -424 -334 -345 -347 -323 -335 -337 -351 -368 -337 -280 -382 -347 -346 -361 -266 -334 -419 -383 -365 -394 -376 -413 -375 -344 -313 -354 -327 -344 -405 -323 -360 -361 -263 -312 -279 -301 -440 -334 -300 -319 -250 -307 -315 -275 -197 -213 -226 -252 -301 -260 -330 -358 -302 -247 -299 -159 -245 -282 22 -250 -415 -445 -494 -346 -282 -226 -193 -161 -176 -179 -112 -132 -123 -131 -57 -26 -47 -9 -91 -48 -40 -112 -127 -52 -52 -130 -222 -154 -100 -155 -53 -38 -83 -105 -90 -80 -117 -129 -95 -47 -96 -164 -121 -65 -120 -109 -25 -160 -178 -53 -89 -88 -91 -117 -44 -35 -34 -120 -79 15 -106 -85 -55 5 33 -3 31 18 16 5 -25 -55 -31 -52 -32 -20 23 -10 -48 230 139 -57 -142 -174 -97 -63 2 -1 65 -1 49 129 64 120 121 136 116 137 171 132 163 147 116 116 144 94 55 66 66 137 119 96 131 79 115 119 125 114 90 96 127 149 75 55 141 107 100 148 86 123 151 110 143 94 113 136 120 170 244 321 189 166 198 144 106 135 126 116 244 94 240 238 202 476 255 -53 -168 51 202 239 197 148 200 253 228 267 316 282 322 373 393 394 435 391 348 365 282 284 300 205 271 303 235 254 269 294 285 288 364 293 206 306 262 154 250 332 205 265 245 174 270 220 199 287 254 150 232 231 191 241 207 260 262 167 219 230 205 218 229 311 253 323 342 228 342 263 198 196 196 184 190 189 231 362 170 393 464 145 -109 -134 93 135 290 240 184 231 239 276 300 292 260 350 350 384 442 375 368 345 287 307 388 279 237 219 249 257 231 367 227 209 298 287 297 221 280 304 218 233 228 233 219 235 237 215 260 222 196 201 210 219 204 238 213 215 183 142 231 195 158 210 184 146 177 163 149 148 165 256 220 193 242 169 62 58 151 108 184 149 51 229 126 230 361 69 -23 -96 -83 115 89 75 156 101 135 158 142 183 140 178 207 100 169 205 148 175 117 99 106 78 50 -13 -25 55 23 -4 32 -9 1 83 -59 -38 -9 -82 26 -49 -115 -93 -69 -53 -89 -146 -143 -49 -165 -122 -100 -150 -122 -143 -162 -170 -72 -141 -179 -141 -95 -48 -91 -131 -90 -150 -250 -208 -168 -166 -269 -289 -10 -206 -212 117 -202 -386 -413 -390 -354 -248 -179 -236 -213 -187 -187 -238 -180 -80 -121 -108 -120 -81 -71 -124 -82 -160 -160 -134 -197 -236 -255 -205 -232 -228 -247 -269 -207 -212 -218 -158 -210 -206 -217 -290 -215 -228 -295 -265 -273 -262 -300 -195 -170 -280 -330 -306 -209 -339 -288 -203 -342 -291 -262 -274 -268 -317 -281 -271 -273 -207 -260 -172 -192 -212 -211 -277 -327 -368 -346 -246 -292 -319 -31 -294 -326 173 -75 -515 -638 -404 -306 -309 -248 -277 -278 -234 -248 -172 -125 -161 -90 -133 -98 44 -47 -74 -76 -125 -80 -59 -181 -211 -202 -154 -154 -259 -143 -89 -153 -197 -147 -192 -190 -80 -160 -218 -150 -121 -180 -169 -168 -81 -131 -205 -126 -119 -113 -132 -97 -78 -107 -90 -158 -68 -44 -129 -94 -95 -18 -88 -78 -29 -90 -123 -72 32 -77 -25 111 -4 -77 -54 -109 -72 -53 -87 -47 -24 -49 66 -36 -25 285 -46 -161 -183 -195 -37 39 90 34 104 85 99 120 122 236 194 172 289 302 239 290 240 248 250 177 217 173 150 197 174 175 172 197 218 243 217 195 195 221 234 174 221 187 188 208 166 201 189 201 193 221 245 210 269 199 135 246 223 199 277 320 174 227 300 217 296 325 302 314 341 311 270 259 183 268 250 177 194 417 225 238 514 225 167 34 -27 153 273 238 188 329 246 246 211 282 311 344 352 293 354 355 354 316 308 344 238 222 196 151 175 147 139 204 219 209 175 167 180 178 191 186 127 115 203 92 59 186 79 54 141 108 32 86 161 18 29 149 40 0 86 13 29 55 48 148 0 67 112 81 79 78 86 -59 -65 -28 -1 8 -65 -86 130 45 -39 382 157 -213 -421 -340 -95 -51 -67 -131 -71 -47 -2 14 -55 -12 37 58 88 91 116 122 21 58 -27 -65 -44 -149 -147 -126 -141 -154 -120 -192 -134 -125 -253 -98 -96 -194 -182 -202 -225 -206 -241 -208 -230 -302 -159 -220 -245 -151 -301 -269 -202 -216 -262 -282 -188 -225 -271 -231 -273 -262 -254 -194 -155 -194 -248 -234 -217 -232 -211 -232 -232 -202 -252 -161 -163 -153 -193 -246 -282 -260 -216 -248 -211 -225 -111 -185 -238 100 -3 -252 -510 -518 -212 -193 -181 -119 -119 -159 -156 -123 -22 -55 -77 -11 -15 20 17 86 24 74 47 -54 -58 -78 -75 -76 -66 -93 -57 -22 -81 -20 13 14 -25 -73 -38 -37 -43 -38 -4 -69 -53 -7 -107 14 -38 -46 23 -7 5 -62 -20 -27 -17 106 1 2 18 4 15 61 32 17 72 15 36 54 29 43 89 93 0 151 113 99 117 69 51 100 95 43 95 2 234 145 83 393 82 35 -63 -75 105 125 160 101 210 195 159 298 240 189 287 279 265 316 343 370 283 318 337 239 204 265 199 237 254 219 263 214 222 284 271 251 235 237 257 324 210 211 277 182 170 173 269 231 165 218 171 197 238 155 156 155 189 201 161 170 159 167 169 139 113 220 123 147 203 139 201 148 60 83 73 48 91 110 60 190 150 182 311 83 -144 -194 -114 26 15 92 5 -40 101 67 60 74 79 116 108 144 155 159 127 95 70 50 30 -29 -93 -127 -84 -152 -149 -54 -120 -82 -85 -135 -148 -161 -162 -160 -214 -173 -177 -241 -219 -250 -250 -268 -275 -275 -258 -281 -312 -276 -287 -287 -253 -299 -360 -240 -255 -316 -389 -302 -332 -343 -321 -390 -254 -236 -226 -260 -360 -384 -387 -367 -418 -435 -338 -322 -374 -317 -399 -217 25 -382 -704 -601 -545 -406 -415 -421 -304 -295 -338 -335 -344 -322 -281 -287 -299 -247 -268 -149 -166 -241 -270 -367 -277 -378 -377 -293 -377 -347 -350 -288 -320 -265 -275 -286 -186 -286 -275 -328 -312 -221 -219 -280 -290 -241 -316 -271 -222 -260 -268 -211 -255 -196 -152 -244 -197 -182 -221 -157 -172 -183 -120 -125 -137 -194 -137 -89 -151 -107 -109 -41 -86 -100 -99 -136 -134 -174 -134 -115 -140 -24 30 -114 -121 222 -21 -162 -150 -284 -121 -117 -32 46 11 19 -7 63 90 15 108 127 119 191 190 180 178 142 49 149 149 77 90 30 19 37 95 109 97 100 147 124 130 120 30 152 111 50 158 88 41 132 143 87 123 112 54 87 50 142 95 65 154 61 103 123 104 117 72 141 220 179 152 260 257 169 108 101 155 77 119 128 190 299 102 340 334 81 11 -91 30 173 282 157 179 246 245 282 259 304 342 330 287 436 426 319 381 397 382 368 271 273 300 248 283 256 209 295 305 183 235 324 268 221 181 247 233 218 242 225 224 170 147 195 184 156 152 218 206 133 105 192 148 71 202 162 122 116 107 94 133 163 126 95 70 2 58 61 -35 -10 -38 -33 67 127 105 406 469 169 -183 -168 138 99 164 269 186 256 260 270 320 296 279 349 385 388 430 424 407 415 356 334 261 262 378 191 169 263 219 267 279 221 189 245 341 264 187 219 177 164 155 180 166 154 233 181 146 180 171 188 151 100 157 169 168 138 138 188 184 140 166 166 133 142 152 119 188 240 199 195 114 91 124 109 123 75 183 137 244 153 112 547 249 -68 -178 -117 87 69 158 161 110 117 157 198 155 155 216 195 220 333 247 212 257 235 132 127 173 70 43 156 72 -58 106 120 51 61 58 74 82 39 3 73 49 -53 19 11 -24 -20 -41 46 -19 -24 -26 -29 -34 -18 -31 -89 -18 -18 -51 -90 5 -22 -26 13 -82 -63 -26 22 22 -3 7 -81 -97 -39 -60 -101 -61 -99 41 -43 -122 332 36 -145 -111 -289 -119 -119 -16 15 -31 29 -52 28 11 26 69 92 68 17 136 131 100 100 17 21 77 6 19 -20 -73 -63 -78 -52 7 -20 3 24 -61 -43 -49 -54 -41 -120 -110 -40 -141 -176 -83 -152 -170 -138 -222 -158 -171 -234 -225 -225 -240 -237 -281 -355 -309 -242 -173 -338 -364 -309 -400 -476 -561 -501 -575 -587 -556 -673 -522 -644 -639 -382 -685 -984 -1122 -1035 -919 -970 -924 -997 -992 -905 -1046 -1112 -1096 -1116 -1106 -1133 -1185 -1078 -1174 -1210 -1220 -1402 -1348 -1521 -1605 -1601 -1628 -1671 -1706 -1695 -1764 -1719 -1769 -1749 -1772 -1760 -1760 -1760 -1760 -1760 -1760 -1760 -1760 -1760 -1760 -1762 -1762 -1762 -1762 -1762 -1762 -1762 -1762 -1762 -1762 -1762 -1762 -1762 -1762 -1762 -1762 -1762 -1762 -1762 -1762 -1762 -1762 -1762 -1762 -1762 -1762 -1762 -1762 -1762 -1762 -1762 -1762 -1762 -1762 -1762 -1762 -1762 -1762 -1762 -1762 -1762 -1762 -1762 -1762 -1762 -1762 -1762 -1762 -1762 -1762 -1762 -1762 -1762 -1762 -1762 -1762 -1762 -1762 -1762 -1762 -1762 -1762 -1762 -1762 -1762 -1762 -1762 -1762 -1762 -1762 -1762 -1762 -1762 -1762 -1762 -1762 -1762 -1762 -1762 -1765 -1765 -1765 -1765 -1755 -1754 -1779 -1740 -1719 -1731 -1686 -1710 -1659 -1690 -1662 -1656 -1562 -1579 -1609 -1538 -1498 -1498 -1421 -1352 -1336 -1273 -1242 -1242 -1290 -1326 -1252 -1213 -1148 -1094 -1194 -1010 -949 -1081 -816 -772 -982 -1055 -978 
#avR[uV]
-219 -264 -194 -210 -104 -161 -16 -75 19 37 46 96 117 61 130 81 101 126 56 118 54 73 107 74 59 61 99 59 -9 40 23 -37 28 15 29 39 20 117 130 34 84 51 22 -248 -529 -32 325 304 204 74 59 79 66 2 12 -3 -21 -22 -91 -160 -200 -244 -239 -276 -213 -144 -171 -101 -64 -43 -27 17 27 -43 -20 -21 -43 6 -14 -48 -12 17 6 12 12 -14 -7 41 46 -15 13 -2 17 39 -27 24 -17 -10 30 9 -10 -22 -3 17 -12 -21 -6 -12 -22 -32 -32 -47 -47 -103 -98 -132 -101 -35 -60 -44 -37 18 11 -30 -36 -101 -392 -448 6 203 248 154 -17 -19 -5 -16 -65 -66 -126 -111 -59 -141 -174 -239 -317 -300 -276 -272 -258 -189 -135 -88 -52 -23 -42 -78 -19 -54 -67 -67 -81 -69 -54 -6 -9 -32 -28 -3 35 24 22 35 54 81 29 43 50 50 102 104 74 95 64 59 103 60 85 92 51 56 42 21 51 78 125 135 177 113 170 132 -16 -309 -296 168 411 438 229 173 144 120 139 92 101 66 86 29 -3 -25 -65 -126 -136 -154 -122 -31 -16 31 70 118 185 142 109 167 129 166 162 140 113 138 216 142 208 191 172 231 194 244 214 163 218 230 256 237 214 234 245 182 181 240 284 264 204 208 202 211 102 161 204 150 233 194 234 295 235 223 275 300 136 -275 -203 317 529 535 365 302 303 247 251 268 246 241 230 191 178 109 57 -17 -10 -30 -7 53 138 208 194 227 200 266 273 250 262 217 277 221 194 214 234 271 253 249 271 282 261 261 204 262 279 282 250 246 278 264 240 268 229 221 260 219 210 193 222 301 190 227 271 223 233 168 180 169 174 201 159 125 96 143 178 181 187 241 195 167 181 176 -109 -391 43 420 447 278 180 182 143 208 123 75 116 29 16 32 7 -28 -157 -227 -187 -155 -215 -120 -69 -51 51 40 64 64 21 -19 6 20 3 32 24 3 32 -5 -12 32 -6 40 35 -50 26 59 36 4 2 12 2 -27 -50 -23 -6 -12 -65 8 -16 -68 -19 -15 -44 -66 -72 -82 -73 -119 -175 -177 -112 -27 -76 -88 -26 -39 -74 -65 -92 -204 -538 -378 39 194 200 56 -63 -63 -111 -90 -89 -119 -102 -183 -181 -182 -243 -299 -390 -370 -371 -371 -321 -317 -205 -148 -211 -119 -106 -187 -107 -165 -197 -194 -192 -142 -174 -196 -159 -115 -164 -204 -127 -126 -175 -82 -109 -140 -145 -118 -126 -164 -131 -130 -130 -131 -100 -99 -187 -188 -200 -203 -153 -172 -143 -104 -128 -132 -124 -64 -41 -122 -144 -460 -703 -172 209 194 40 -130 -72 -56 -153 -148 -103 -166 -157 -185 -270 -302 -296 -315 -410 -405 -414 -372 -236 -190 -212 -141 -157 -99 -71 -153 -132 -102 -106 -121 -129 -107 -133 -130 -56 -117 -80 -78 -100 -71 -41 -107 -103 -9 -68 -106 -73 -55 -83 -92 -55 -90 -111 -84 -107 -48 -56 -87 -113 -89 -56 -136 -82 -111 -168 -159 -203 -126 -132 -155 -89 -39 -105 -78 -59 -53 -66 -196 -598 -598 -92 228 219 -54 -60 12 -52 -51 -106 -109 -106 -108 -153 -205 -220 -286 -346 -402 -345 -362 -333 -288 -203 -66 -134 -129 -70 -121 -106 -54 -110 -132 -92 -88 -141 -142 -72 -79 -92 -54 -100 -104 -48 -63 -40 -91 -73 -5 -71 -30 -68 -97 -73 -88 -59 -47 -20 -21 -67 -49 -41 -108 -54 -75 -59 -3 -43 -84 -124 -52 -106 -136 -112 -113 -112 -115 -55 -97 -40 5 -51 -6 -37 -196 -436 -410 -36 187 220 117 4 -18 -5 -34 -66 -60 -76 -85 -70 -113 -149 -211 -303 -346 -288 -254 -266 -201 -130 -92 -48 -24 5 -16 -33 13 8 -43 4 15 -49 15 24 -27 45 24 19 77 41 28 77 58 51 46 9 56 102 53 79 99 37 59 64 75 73 66 96 33 0 12 -23 -3 54 112 85 21 149 144 75 172 119 -200 -405 -3 357 453 265 182 217 110 131 128 130 80 69 18 47 28 -81 -90 -149 -156 -135 -156 -108 -14 8 63 84 116 127 58 115 108 43 74 75 52 119 79 23 116 101 91 123 118 91 90 113 81 147 114 111 126 82 142 110 77 117 82 108 128 122 98 125 128 125 150 76 54 55 -6 21 57 77 66 104 104 118 152 131 120 114 -197 -637 -207 351 394 268 180 110 91 148 45 67 73 45 44 -41 -64 -59 -148 -217 -216 -218 -225 -133 -100 -79 13 61 54 62 70 76 63 -35 13 26 26 37 62 59 27 -2 1 55 58 73 36 14 65 33 3 -21 24 55 44 17 -9 25 -23 -49 0 36 18 -17 15 -6 -21 -58 -10 2 -1 -11 -7 -57 -107 -46 -97 -43 -38 -84 -44 26 6 -77 36 49 -37 -353 -594 -190 189 277 138 -5 9 0 -55 -53 -59 -79 -137 -157 -173 -186 -221 -294 -397 -381 -378 -435 -312 -239 -218 -153 -121 -126 -106 -115 -130 -143 -117 -110 -150 -159 -115 -152 -187 -74 -76 -127 -85 -168 -128 -46 -122 -102 -95 -65 -74 -100 -135 -143 -117 -116 -117 -96 -137 -138 -108 -94 -112 -183 -95 -86 -205 -177 -186 -225 -222 -206 -132 -132 -133 -93 -96 -72 -105 -149 -416 -671 -273 111 207 155 -55 -55 -62 -118 -55 -67 -141 -111 -140 -138 -203 -220 -213 -358 -321 -321 -337 -249 -188 -103 -70 -81 -9 27 -6 -2 -16 8 2 9 -12 -19 29 9 2 61 72 62 53 39 103 123 31 72 147 151 92 128 216 152 140 203 189 140 158 222 219 169 253 223 146 193 177 165 191 170 203 274 272 290 321 266 296 306 326 18 -335 57 555 638 508 390 352 345 382 283 298 343 284 338 241 235 184 147 90 0 15 52 182 204 240 337 323 340 359 388 403 333 359 377 323 367 356 332 315 339 415 405 353 385 366 377 455 441 368 361 369 387 412 372 389 392 354 370 398 362 345 363 366 355 347 339 367 345 294 354 326 291 283 316 331 252 270 219 214 259 233 227 229 244 292 317 250 280 229 48 -356 -200 330 504 485 297 214 180 220 185 152 172 94 132 104 43 -27 -10 -69 -168 -184 -201 -121 -93 -48 29 62 86 62 82 15 35 76 53 27 -27 32 -10 -32 24 0 47 0 -19 6 -15 24 -33 -18 -8 -22 19 -24 -45 -12 -42 -34 -29 -70 -107 -56 -39 -75 -66 -55 -91 -120 -92 -126 -77 -94 -103 -107 -116 -93 -170 -233 -224 -172 -192 -179 -146 -159 -127 -131 -149 -133 -147 -196 -500 -654 -221 44 92 47 -104 -188 -182 -211 -232 -156 -213 -226 -252 -266 -268 -418 -448 -438 -478 -515 -476 -391 -406 -368 -309 -238 -176 -219 -232 -182 -249 -268 -234 -210 -226 -251 -250 -253 -194 -198 -194 -214 -187 -189 -177 -177 -180 -128 -168 -197 -128 -147 -193 -151 -118 -129 -145 -122 -116 -120 -110 -128 -114 -139 -142 -114 -134 -130 -157 -167 -135 -171 -161 -130 -95 -4 -11 -91 -30 -116 -202 -458 -601 -91 208 212 90 -34 -52 -33 -42 -109 -35 -66 -117 -95 -145 -155 -175 -332 -339 -292 -311 -305 -264 -185 -89 -32 -35 -18 27 -12 -35 -34 -30 -11 -52 -6 28 -64 0 -44 -23 97 4 28 38 16 40 6 16 67 93 -20 4 68 31 26 53 2 -16 61 31 16 38 -12 -13 24 -9 -3 -24 -15 2 -101 -73 -28 0 -33 -16 55 74 -25 10 32 -67 -494 -581 -44 269 396 81 -67 68 0 20 10 -49 -79 -26 -59 -132 -122 -152 -242 -345 -312 -229 -319 -231 -185 -186 -107 -24 6 -38 -32 -96 -95 -58 -51 -108 -115 -74 -100 -62 -61 -86 -87 -69 -121 -77 -19 -96 -94 -85 -77 -73 -81 -97 -95 -61 -91 -100 -92 -79 -112 -126 -112 -86 -141 -132 -169 -131 -91 -146 -115 -194 -216 -195 -231 -214 -185 -156 -151 -122 -134 -166 -125 -113 -135 -371 -764 -392 30 109 100 -116 -143 -136 -151 -145 -225 -234 -201 -187 -232 -298 -302 -337 -479 -492 -430 -469 -439 -333 -293 -269 -216 -177 -170 -129 -179 -178 -148 -189 -201 -189 -227 -201 -173 -169 -104 -166 -208 -165 -153 -126 -147 -146 -124 -135 -129 -180 -111 -90 -145 -163 -177 -80 -139 -140 -79 -150 -114 -133 -152 -140 -204 -203 -193 -207 -199 -129 -110 -165 -125 -64 -152 -104 -81 -263 -572 -485 -66 49 136 20 -108 -63 -84 -126 -150 -134 -166 -190 -197 -218 -227 -286 -354 -427 -416 -436 -416 -344 -255 -216 -228 -166 -122 -111 -113 -91 -162 -152 -126 -150 -128 -127 -120 -98 -87 -132 -78 -44 -62 -100 -89 -15 -85 -34 -12 -27 -36 -97 27 -5 -41 -44 -40 54 5 5 18 25 6 -5 -22 -39 -9 -20 9 71 45 94 93 48 122 98 95 -100 -525 -424 44 347 292 54 47 29 41 0 -20 -8 -3 -14 -59 -122 -137 -144 -212 -272 -328 -299 -246 -195 -118 -129 -56 74 37 15 4 11 49 6 0 11 1 89 50 5 80 53 34 62 73 20 63 171 93 102 75 78 59 62 153 114 115 131 81 101 86 54 129 109 110 107 83 88 93 77 20 16 33 17 30 119 119 94 80 95 84 84 59 -316 -468 2 292 373 239 139 132 102 100 25 76 92 21 18 0 -28 -69 -129 -190 -235 -252 -218 -140 -130 -43 -11 34 84 131 89 6 127 73 -1 77 30 33 54 69 73 42 89 92 79 100 93 82 47 117 136 28 91 123 81 113 78 40 90 122 73 79 128 87 70 64 92 34 8 8 10 46 -25 23 48 61 123 40 80 104 96 51 -150 -436 -165 191 345 323 135 131 78 99 39 13 92 36 46 39 -26 -69 -119 -170 -219 -194 -156 -154 -79 -63 -11 63 113 154 129 146 136 142 133 131 178 171 76 147 190 170 202 234 225 265 240 182 286 313 272 311 292 278 382 382 295 384 410 369 400 410 395 395 436 407 368 409 439 469 522 555 542 570 602 595 618 567 223 142 579 971 985 795 769 738 714 748 739 807 755 757 735 713 725 659 630 630 598 580 613 667 733 863 883 872 937 877 928 885 872 895 881 885 873 880 880 880 880 880 880 880 880 882 882 880 880 880 880 880 880 880 880 878 879 879 879 879 879 879 879 879 879 879 881 881 881 881 881 881 881 881 881 881 884 884 884 877 895 868 738 861 899 865 892 877 888 878 878 878 878 878 878 878 879 879 879 879 879 879 879 879 879 879 881 881 881 881 881 881 881 881 881 881 876 876 876 869 869 860 854 841 806 820 794 786 740 704 705 700 621 625 537 553 511 512 548 445 439 431 409 378 380 388 359 329 331 282 273 234 172 162 181 249 227 169 235 187 168 218 172 45 -314 -309 144 325 354 
#avL[uV]
-3895 -3512 -3004 -2697 -2267 -1865 -1478 -1004 -648 -260 279 192 217 234 237 233 149 236 315 198 235 217 191 220 227 235 233 214 209 164 164 222 172 227 308 299 252 236 244 246 231 146 269 389 324 208 236 358 288 216 198 179 218 202 201 217 153 172 184 190 220 214 140 214 200 158 244 164 154 210 175 128 135 179 180 132 124 110 72 159 189 113 128 147 129 151 135 100 136 156 109 140 152 86 119 92 125 116 84 111 113 123 73 15 57 116 99 94 93 25 73 71 55 75 24 92 72 72 106 73 125 75 -28 72 56 129 231 118 50 67 32 76 104 80 46 34 61 37 111 38 -17 99 48 78 106 95 126 118 125 46 74 68 50 91 78 49 80 93 7 80 68 42 105 73 70 61 99 81 69 71 118 88 74 117 145 88 101 133 84 129 116 87 177 160 121 133 100 102 143 65 123 179 144 218 108 126 150 126 90 55 250 265 170 127 103 148 157 144 83 76 101 79 76 94 83 112 78 62 67 119 80 157 190 64 96 124 73 49 33 84 106 92 75 51 57 70 123 89 12 135 87 54 127 79 109 86 45 181 77 78 137 91 136 85 132 176 131 112 98 133 140 103 78 82 159 100 36 129 191 194 121 117 159 163 97 29 228 223 102 113 252 267 164 140 114 144 156 131 172 129 93 138 125 138 162 171 153 225 137 119 173 106 134 161 218 117 122 135 111 142 113 152 178 145 93 151 133 135 135 58 119 183 185 142 156 140 185 157 118 102 145 111 143 193 112 160 165 100 123 58 130 217 115 113 122 103 140 151 119 47 79 107 141 153 105 156 175 105 87 141 28 96 266 178 166 101 110 231 169 120 97 40 59 94 76 69 91 76 94 57 98 149 101 145 144 90 118 121 13 18 65 134 104 85 113 29 27 46 66 66 44 90 103 55 38 52 105 116 35 60 63 17 118 127 39 80 91 80 91 39 59 21 98 93 -1 87 86 74 32 15 39 36 73 76 52 33 80 68 52 43 52 14 54 138 96 84 23 9 30 45 79 29 57 -3 46 22 -45 42 0 0 19 62 92 56 86 63 50 71 15 -34 34 18 3 43 -49 -6 26 -1 36 -14 -2 4 -6 -10 10 6 -48 6 46 -64 -26 -5 -38 -5 -29 -30 -17 -42 -6 -19 -51 -40 -34 -88 -141 -39 -47 -62 -36 -27 -37 -28 -25 -150 -50 -119 -106 78 -5 -105 -64 28 -58 -86 -143 -120 -34 -75 -138 -88 -122 -144 -76 -90 -131 -137 -90 -124 -85 -74 -155 -116 -107 -154 -75 -153 -192 -99 -124 -150 -167 -153 -151 -219 -153 -89 -201 -138 -75 -148 -198 -118 -178 -130 -79 -198 -131 -96 -179 -163 -71 -127 -146 -98 -125 -113 -141 -172 -97 -120 -115 -109 -135 -104 -192 -134 -158 -177 -69 -193 -131 -70 -102 -127 -85 -103 -112 -146 -238 -30 4 -49 -63 -32 -8 -42 -71 -223 -153 -112 -120 -125 -154 -171 -142 -93 -152 -119 -114 -131 -108 -95 -92 -71 -129 -257 -142 -113 -129 -126 -139 -146 -220 -104 -110 -179 -144 -151 -129 -171 -182 -136 -125 -119 -151 -132 -156 -132 -125 -192 -130 -131 -116 -109 -128 -108 -149 -136 -151 -126 -73 -149 -126 -64 -130 -100 -80 -131 -100 -69 -48 -97 -138 -97 -88 -124 -70 11 -16 -64 -61 -141 -85 -35 -152 3 45 -65 -33 -76 -38 4 -88 -57 -53 -100 -42 -71 -80 -64 -102 -48 -58 -49 75 46 -10 15 1 12 -9 -33 -34 -25 6 27 -25 -24 -1 -2 5 -9 -37 37 16 21 39 -32 27 47 49 37 1 37 84 84 32 95 40 48 72 42 89 91 95 16 69 101 57 54 36 62 110 70 85 131 113 115 49 129 178 -78 95 259 114 153 110 83 159 174 78 79 111 96 75 100 143 125 36 76 122 135 135 131 161 140 174 127 96 116 135 133 90 145 113 131 180 118 121 137 58 118 142 104 166 115 109 162 153 159 139 184 72 70 154 184 188 85 199 177 93 215 164 132 144 152 175 147 140 130 117 168 101 147 148 129 169 212 223 207 125 143 173 -37 163 343 188 160 210 281 169 139 177 140 134 185 142 149 106 71 142 100 130 148 75 143 165 170 161 110 83 129 127 124 84 80 156 75 84 108 135 97 125 112 30 106 165 112 62 106 90 107 53 65 136 93 100 73 71 50 50 85 55 130 75 33 78 61 80 6 69 69 51 73 91 55 -18 61 47 -29 26 106 62 100 96 62 52 32 57 18 -74 45 195 83 130 26 -1 77 30 -34 -67 2 -51 -34 -34 -21 -12 -90 -52 -18 -69 -28 11 -28 37 -29 -67 -23 -86 -69 -49 -94 -72 -66 -57 -89 -108 -107 -83 -88 -70 -72 -138 -92 -102 -97 -57 -91 -101 -90 -91 -103 -112 -129 -134 -89 -130 -90 -43 -126 -119 -80 -138 -186 -83 -114 -134 -115 -179 -141 -137 -142 -142 -122 -99 -128 -71 -134 -140 -85 -109 -260 -94 29 -50 -32 -181 -129 -57 -87 -177 -147 -82 -219 -151 -114 -103 -141 -164 -156 -154 -113 -86 -106 -105 -68 -106 -164 -126 -131 -106 -109 -145 -107 -103 -145 -168 -158 -136 -119 -126 -148 -148 -140 -126 -122 -184 -96 -64 -191 -121 -56 -141 -154 -99 -111 -185 -122 -98 -182 -132 -94 -135 -89 -133 -151 -121 -238 -111 -123 -181 -149 -142 -154 -150 -57 -88 -115 -143 -167 -84 -83 -251 -197 19 -118 -147 -117 -3 1 -123 -137 -121 -92 -88 -113 -169 -152 -127 -111 -146 -136 -140 -113 -86 -99 -42 -134 -81 -71 -134 -49 -59 -85 -88 -85 -76 -34 -87 -67 6 -104 -93 -11 -32 -55 -33 -21 -11 -26 -16 -1 -100 -19 3 -71 32 -4 -34 -32 0 34 -44 -30 22 1 22 13 12 -27 -52 -37 14 29 -13 11 12 32 16 -13 63 -14 12 7 15 67 98 80 39 39 0 43 -56 24 154 102 102 24 130 146 10 37 45 -20 -3 42 31 45 -49 -10 36 22 17 19 71 27 82 4 10 65 29 27 13 26 8 62 25 -20 33 1 3 -26 24 71 16 28 8 29 13 48 48 -6 97 -1 33 46 -27 18 19 53 36 37 27 -44 52 26 6 34 22 -18 21 46 -8 51 10 6 29 21 -9 -23 84 3 26 11 8 37 34 4 -8 33 3 64 -102 -11 187 32 49 -48 1 32 -26 0 -29 29 -41 -68 -13 -111 -54 -8 -81 0 25 -18 -18 -19 25 -42 -49 4 0 -80 -61 -67 -74 -73 -72 -26 -49 -108 -90 -62 -51 -50 -95 -143 -60 -51 -114 -42 -38 -41 -111 -109 -39 -64 -64 -74 -81 -40 -58 -52 -69 -89 -62 -67 -64 -61 -69 -34 -13 -108 -25 -45 -73 -21 -83 -25 35 2 -7 -34 -62 -36 -30 -84 -11 92 66 -16 4 39 40 -2 14 -52 17 85 -58 -17 13 -7 12 -9 6 57 53 26 59 81 79 54 21 38 88 104 49 120 129 57 105 67 90 104 97 153 121 142 173 81 130 166 145 179 167 198 198 173 146 221 231 173 199 202 163 223 278 149 175 229 272 233 255 245 245 294 203 185 168 246 307 302 290 292 322 299 216 254 275 221 333 410 271 309 393 253 368 338 277 315 217 216 278 291 272 271 277 276 300 307 374 268 239 340 318 368 301 337 295 216 302 276 311 264 269 224 260 272 177 265 238 277 277 209 199 270 256 191 285 250 209 234 237 199 240 194 144 229 197 183 206 173 192 194 133 165 169 230 168 113 187 138 179 139 162 191 182 194 178 206 162 153 188 81 33 153 277 214 212 106 57 163 149 159 92 40 63 98 122 53 26 104 67 55 79 95 103 79 101 113 129 34 22 49 20 62 49 61 17 -7 21 25 -16 20 2 -3 61 -62 0 66 -35 10 32 -25 -34 -3 -25 -19 49 -9 7 -34 9 39 -75 23 -6 -52 -3 -31 12 -29 -95 -32 -12 -98 -89 -27 -16 -20 -34 4 -57 -20 -90 -184 54 30 -8 -28 -33 0 -32 -76 -179 -75 -71 -109 -116 -128 -99 -129 -147 -133 -72 -149 -106 -31 -68 -90 -114 -148 -95 -90 -142 -125 -157 -135 -111 -140 -152 -74 -101 -179 -137 -105 -87 -141 -109 -124 -159 -138 -117 -83 -103 -104 -121 -111 -100 -145 -105 -113 -76 -123 -89 -33 -179 -124 -94 -96 -93 -74 -97 -111 -75 -66 -43 -6 -79 -68 -20 -39 4 -36 -100 -143 -28 -42 -139 -149 -36 -19 -130 -98 -137 -222 -139 -182 -190 -201 -233 -192 -148 -193 -216 -184 -186 -154 -156 -188 -169 -191 -130 -168 -321 -161 -134 -199 -170 -225 -213 -165 -147 -185 -300 -223 -143 -204 -159 -140 -148 -172 -135 -147 -260 -182 -161 -173 -167 -171 -144 -152 -174 -184 -192 -144 -154 -184 -165 -170 -179 -179 -154 -148 -158 -136 -180 -190 -158 -163 -94 -83 -153 -141 -139 -96 -185 -145 -225 -144 73 -176 -188 -94 -52 -31 -135 -118 -170 -171 -95 -126 -164 -159 -125 -116 -148 -112 -100 -154 -68 -33 -84 -106 -34 -73 -124 -70 -75 -182 -98 40 -143 -127 -37 -84 -59 -72 -89 -64 -39 -76 -81 -5 -54 -59 -28 -25 7 -93 -53 3 -25 -39 -15 -42 -15 46 -31 -47 1 28 -68 -26 -15 -42 15 29 15 -21 -22 -20 6 48 48 -1 -16 55 5 22 -79 6 167 -30 55 13 -88 54 21 23 -26 -61 3 -28 -7 -39 -31 -39 -38 -34 8 72 7 -1 2 1 26 16 -52 -36 -71 -62 -9 -25 -9 -31 -72 -50 -91 -103 8 -40 -57 -44 -70 -26 -29 -102 -14 41 -80 -42 -7 -52 20 -20 -62 -15 21 -22 -24 -6 10 61 34 -15 -88 50 88 27 80 122 159 98 160 155 116 207 82 200 368 215 224 252 349 378 305 358 336 373 374 275 407 455 454 480 466 520 574 493 581 617 608 717 644 708 762 765 752 814 815 828 886 842 886 869 892 879 879 879 879 879 879 879 879 879 879 881 881 881 881 881 881 881 881 882 881 881 881 881 881 881 881 881 881 881 880 880 880 880 880 880 880 880 880 880 879 879 879 882 873 887 952 890 871 888 875 882 877 882 882 882 882 882 882 882 881 881 881 881 881 881 881 881 881 881 880 880 880 880 880 880 880 880 880 880 883 883 883 887 887 891 894 900 918 911 926 931 953 972 963 965 1023 992 1020 1022 1009 1026 970 1044 1026 1026 967 995 1016 960 943 959 900 872 865 837 845 850 877 869 825 825 743 727 812 648 625 788 769 734 664 628 556 
#avF[uV]
4115 3777 3199 2908 2372 2026 1494 1079 629 222 -325 -288 -334 -296 -368 -314 -251 -363 -371 -316 -290 -291 -299 -294 -287 -296 -333 -274 -199 -205 -187 -184 -200 -242 -337 -339 -272 -353 -375 -280 -315 -198 -292 -141 204 -176 -561 -662 -493 -290 -257 -258 -285 -204 -214 -213 -131 -149 -93 -29 -20 29 98 61 12 -14 -73 -63 -89 -167 -148 -146 -162 -136 -160 -111 -81 -116 -58 -110 -177 -130 -134 -159 -141 -136 -128 -141 -183 -141 -123 -138 -170 -126 -92 -117 -108 -106 -114 -121 -102 -100 -69 -32 -45 -95 -93 -81 -71 7 -40 -23 -7 28 73 39 28 -36 -45 -28 -87 -94 16 -41 -19 -27 161 329 -56 -271 -281 -231 -86 -60 -41 -18 4 29 15 72 77 41 125 160 210 204 150 153 132 142 60 20 2 -67 -36 29 -61 -38 59 -13 13 26 -51 -67 -60 -28 -71 -77 -104 -96 -140 -124 -128 -199 -174 -132 -152 -184 -187 -233 -190 -182 -241 -219 -224 -193 -186 -195 -194 -121 -165 -201 -195 -297 -233 -261 -328 -239 -261 -187 -234 43 125 -296 -515 -586 -386 -317 -228 -197 -241 -172 -177 -160 -170 -141 -75 -37 -2 7 56 -2 -67 -32 -80 -156 -144 -168 -219 -226 -216 -260 -205 -217 -219 -211 -236 -227 -228 -278 -295 -246 -299 -310 -304 -330 -260 -345 -295 -309 -393 -329 -351 -320 -378 -359 -312 -353 -382 -397 -345 -311 -280 -294 -262 -262 -241 -279 -424 -389 -355 -413 -394 -387 -372 -330 -365 51 101 -431 -781 -802 -530 -443 -417 -391 -407 -399 -418 -370 -323 -329 -304 -248 -219 -153 -142 -194 -130 -173 -311 -314 -328 -388 -418 -384 -396 -386 -373 -360 -391 -374 -373 -360 -327 -423 -387 -384 -407 -340 -381 -445 -389 -405 -435 -423 -435 -404 -397 -367 -385 -380 -373 -415 -372 -380 -375 -294 -345 -360 -321 -444 -386 -337 -356 -272 -321 -321 -294 -248 -239 -232 -237 -297 -284 -338 -362 -347 -283 -308 -210 -272 -156 212 -209 -522 -558 -510 -349 -302 -241 -249 -182 -170 -192 -98 -107 -108 -102 -29 59 78 86 9 71 29 -49 -69 -65 -59 -129 -198 -126 -65 -119 -50 -30 -78 -91 -69 -76 -85 -90 -87 -32 -92 -141 -65 -62 -120 -100 -21 -121 -139 -41 -53 -41 -57 -85 -26 5 -30 -82 -25 21 -72 -41 -8 40 66 34 83 101 101 60 -5 -3 20 -26 -4 21 50 38 65 442 293 -63 -204 -231 -101 -15 33 54 94 43 96 148 140 181 182 223 237 298 313 285 308 270 245 189 182 176 101 102 144 156 172 171 196 156 157 176 192 165 125 154 197 176 119 129 146 135 146 184 124 156 195 148 172 136 150 152 140 221 277 341 243 201 234 180 131 165 161 150 215 91 241 250 381 708 278 -144 -223 17 217 215 176 188 224 242 254 279 330 347 393 428 453 501 529 500 447 392 307 319 296 232 253 263 253 257 253 273 275 280 326 286 220 257 255 156 227 299 190 219 237 182 207 199 202 252 218 154 220 201 188 237 198 249 221 153 208 229 198 191 240 275 246 326 336 273 319 264 226 192 167 191 182 171 200 305 226 594 647 155 -196 -210 97 131 211 206 164 226 234 260 279 295 298 372 406 461 533 454 457 425 359 332 324 277 242 199 247 246 201 331 236 203 268 286 294 201 250 274 191 225 223 199 195 196 223 198 198 202 162 185 206 201 197 208 183 172 148 141 198 167 172 184 176 139 134 144 154 173 150 245 233 201 238 183 104 71 162 101 135 137 41 190 193 391 476 70 -111 -182 -121 84 76 59 134 109 132 157 149 173 161 208 261 227 300 298 238 264 188 139 125 82 49 -12 -10 58 10 -7 45 -9 -6 87 -52 -40 6 -84 7 -46 -125 -91 -66 -78 -96 -135 -130 -42 -152 -143 -102 -152 -141 -126 -151 -160 -92 -142 -167 -153 -88 -36 -74 -86 -66 -140 -244 -199 -137 -199 -274 -254 -93 -214 -58 291 -149 -468 -537 -425 -356 -295 -189 -243 -224 -205 -181 -213 -144 -84 -105 -40 -44 13 24 -25 16 -66 -112 -105 -180 -219 -249 -217 -203 -228 -239 -223 -192 -197 -189 -178 -197 -166 -221 -268 -207 -232 -281 -244 -250 -253 -266 -220 -185 -265 -311 -271 -228 -310 -255 -211 -298 -273 -261 -266 -250 -300 -275 -266 -280 -194 -222 -157 -141 -169 -187 -247 -278 -328 -312 -244 -296 -305 -83 -278 -145 448 47 -562 -675 -437 -320 -287 -232 -282 -231 -209 -223 -151 -115 -100 -35 -70 0 141 73 53 55 -27 -9 -4 -143 -189 -179 -147 -151 -232 -139 -49 -121 -161 -123 -163 -174 -89 -134 -162 -113 -118 -164 -163 -144 -68 -131 -170 -96 -78 -97 -126 -95 -67 -75 -80 -106 -26 -33 -115 -80 -62 -21 -63 -48 7 -62 -93 -53 29 -54 9 137 20 -9 -19 -62 -11 -17 -79 -39 19 -55 24 -8 157 511 60 -215 -275 -216 -25 25 67 53 105 93 114 159 170 264 239 240 364 426 370 407 398 342 307 242 239 190 176 201 188 196 201 206 219 257 242 204 223 259 213 169 229 182 225 220 148 212 193 199 177 203 234 225 273 208 159 243 216 218 277 294 178 226 317 211 266 347 315 329 368 345 306 261 203 267 234 181 182 366 244 386 721 305 69 -78 -98 143 232 209 201 275 218 255 214 282 303 359 374 327 444 427 427 406 355 352 230 202 187 118 117 113 105 162 160 155 127 132 145 118 138 138 64 50 121 42 24 87 -2 25 69 7 -51 18 56 -94 -54 41 -70 -94 -5 -68 -88 -68 -47 -15 -111 -22 -11 -27 -22 -36 -19 -145 -186 -157 -146 -154 -182 -212 -55 -129 -38 454 89 -437 -635 -509 -267 -215 -223 -289 -195 -184 -173 -131 -211 -130 -89 -48 -7 23 87 84 -10 -47 -122 -169 -202 -273 -280 -274 -300 -317 -257 -324 -289 -255 -373 -252 -238 -304 -306 -360 -371 -331 -373 -339 -361 -454 -340 -349 -365 -298 -419 -408 -337 -357 -393 -389 -326 -368 -384 -346 -386 -380 -368 -319 -286 -329 -359 -323 -340 -337 -303 -315 -332 -317 -315 -256 -232 -222 -275 -301 -325 -310 -284 -332 -316 -294 -223 -253 -203 253 97 -354 -634 -631 -308 -252 -226 -199 -182 -195 -203 -140 -82 -94 -79 5 -6 50 97 156 119 116 82 -16 -58 -90 -100 -88 -91 -77 -60 -55 -87 -29 23 -5 -13 -39 -41 -28 -56 -29 6 -55 -32 -18 -63 20 -25 -23 7 6 26 -41 5 -3 1 115 54 30 33 40 44 74 70 73 100 74 66 88 73 85 125 116 85 230 197 160 184 142 111 154 135 98 145 68 249 207 313 622 172 4 -94 -80 130 188 211 181 273 224 226 337 306 275 349 418 423 456 496 535 450 434 456 364 308 318 237 287 307 255 322 294 283 318 316 314 301 304 289 342 255 266 301 231 216 219 292 237 208 262 192 221 275 192 177 181 215 212 179 187 175 189 184 173 156 223 160 175 231 188 219 197 126 128 102 38 74 128 60 201 214 365 534 108 -212 -252 -131 36 37 86 25 24 94 83 103 103 132 165 169 274 286 266 251 223 184 130 68 -5 -52 -85 -77 -108 -94 -23 -75 -56 -38 -98 -125 -88 -121 -98 -149 -178 -134 -194 -184 -196 -208 -204 -215 -240 -240 -200 -236 -241 -231 -228 -216 -225 -262 -210 -206 -245 -311 -220 -242 -269 -236 -290 -178 -169 -170 -144 -233 -273 -290 -259 -305 -354 -290 -229 -286 -253 -265 83 310 -264 -663 -649 -450 -270 -346 -315 -238 -226 -229 -211 -245 -212 -144 -154 -147 -64 -28 44 -9 -21 -87 -182 -114 -230 -270 -222 -264 -244 -214 -168 -211 -173 -152 -157 -102 -164 -175 -215 -191 -122 -130 -149 -179 -171 -189 -156 -123 -157 -164 -117 -142 -99 -83 -137 -97 -90 -126 -61 -65 -81 -46 -23 -36 -61 -37 -21 -40 -22 15 76 32 40 32 -9 -22 -54 -39 -19 -21 43 79 -18 94 549 179 -136 -167 -263 -32 -16 43 110 81 126 112 148 161 127 230 247 258 383 389 350 368 326 203 258 246 166 156 107 79 117 160 155 167 175 205 206 198 176 107 167 166 141 201 143 94 173 181 127 160 149 130 121 83 179 153 138 156 115 147 132 153 145 121 182 235 236 215 291 296 226 146 131 199 120 121 172 195 265 208 541 494 94 -15 -136 12 184 243 160 197 259 251 295 290 326 365 361 358 504 533 447 504 506 459 404 311 319 308 248 268 248 203 303 305 200 252 307 265 226 185 229 241 202 204 200 218 172 118 189 156 123 128 182 203 86 81 165 133 73 124 119 88 78 67 67 102 134 114 76 63 -2 8 23 -73 -54 -53 -86 1 47 129 567 564 104 -311 -272 76 50 108 181 140 202 199 204 247 252 271 330 361 397 458 482 455 435 365 309 260 225 246 124 119 195 158 176 206 165 135 183 211 172 137 124 105 106 85 98 114 84 89 89 58 97 89 111 81 -1 60 68 60 63 53 98 111 40 70 69 46 64 69 42 102 170 141 130 77 53 33 21 45 16 90 61 141 85 243 644 186 -197 -321 -207 -3 -14 67 70 69 50 71 137 106 115 176 181 230 344 303 285 302 246 164 117 135 35 -9 51 9 -47 16 53 39 7 28 39 34 -5 -34 33 -7 -86 -24 -41 -65 -56 -55 -24 -83 -32 -66 -83 -66 -70 -62 -87 -59 -74 -75 -107 -60 -60 -54 -22 -108 -64 -24 12 12 -25 18 -72 -97 -60 -107 -96 -86 -126 -16 -58 -16 467 109 -204 -256 -378 -157 -155 -51 -38 -43 15 -85 3 -15 0 65 104 111 97 212 195 153 152 52 47 63 -27 -42 -92 -120 -120 -126 -110 -60 -81 -87 -67 -84 -106 -132 -125 -131 -207 -195 -163 -226 -224 -205 -271 -264 -259 -313 -258 -319 -366 -316 -361 -385 -362 -410 -472 -429 -379 -348 -457 -457 -437 -520 -592 -682 -653 -702 -725 -718 -802 -701 -767 -591 -358 -803 -1223 -1334 -1174 -1074 -1097 -1050 -1122 -1114 -1083 -1162 -1213 -1190 -1194 -1192 -1179 -1204 -1123 -1180 -1198 -1222 -1385 -1378 -1572 -1646 -1637 -1689 -1692 -1744 -1714 -1759 -1737 -1767 -1755 -1766 -1760 -1760 -1760 -1760 -1760 -1760 -1760 -1760 -1761 -1761 -1762 -1762 -1762 -1762 -1762 -1762 -1762 -1762 -1761 -1761 -1761 -1761 -1761 -1761 -1761 -1761 -1761 -1761 -1761 -1762 -1762 -1762 -1762 -1762 -1762 -1762 -1762 -1762 -1762 -1763 -1763 -1763 -1760 -1769 -1755 -1690 -1752 -1771 -1754 -1767 -1760 -1765 -1760 -1760 -1760 -1760 -1760 -1760 -1760 -1761 -1761 -1761 -1761 -1761 -1761 -1761 -1761 -1761 -1761 -1762 -1762 -1762 -1762 -1762 -1762 -1762 -1762 -1762 -1762 -1759 -1759 -1759 -1756 -1756 -1751 -1748 -1742 -1724 -1731 -1721 -1717 -1694 -1676 -1669 -1665 -1645 -1618 -1558 -1575 -1520 -1539 -1518 -1490 -1466 -1458 -1376 -1373 -1397 -1348 -1303 -1288 -1231 -1155 -1138 -1072 -1017 -1012 -1059 -1119 -1052 -994 -979 -914 -980 -867 -797 -834 -454 -424 -809 -954 -910 
