ADC Sampling rate (Hz):
100
Fragment duration (sec):
20
Number of samples exported by each lead:
1999

#I[uV]
2763 2494 2209 2014 1693 1436 1090 898 491 254 -10 -127 -80 -61 -113 -68 -52 -59 -78 -62 -8 -60 -47 -11 -30 -102 -72 -96 -47 -5 -93 -42 -31 -78 -78 -57 -62 -65 -3 37 71 -15 -76 -23 -57 -78 -35 -68 -75 -113 315 988 498 -95 -53 -81 -9 -16 -13 -32 -45 -50 -27 51 49 26 39 75 103 92 113 145 147 142 212 158 61 32 -21 -28 -101 -114 -97 -70 -41 -27 -54 -59 -42 -70 -54 -51 -40 -42 -50 -36 -75 -48 -37 -74 -118 -25 -11 -50 -45 -72 -79 -66 -34 9 2 66 78 -45 -85 -66 -64 -55 -63 -37 -53 -45 616 954 164 -102 30 -39 -24 -39 -27 -15 -11 -4 -19 -32 99 65 27 129 105 126 160 123 193 174 137 138 32 -8 -44 -55 -102 -131 -75 -21 -107 -117 -65 -52 -68 -54 -33 -55 -56 -80 -32 -19 -66 -12 -62 -87 -71 -65 -82 -85 -46 -36 -53 -54 -34 -17 4 21 61 -32 -67 -89 -59 -8 -78 -52 -112 -118 310 869 497 -69 -58 -53 -60 -50 -5 -67 -6 17 -4 -6 3 59 24 34 69 166 160 83 148 172 155 131 48 -9 -39 -56 -69 -92 -47 -116 -94 -57 -69 -87 -62 -56 -33 -17 -113 -61 -42 -48 -20 -73 -61 -44 -87 -59 -29 -55 -53 -76 -62 -15 -82 -70 -41 -68 -7 31 14 18 -33 -62 -56 -61 -49 -68 -51 -127 -141 324 926 558 -85 -77 24 -92 -81 -7 -21 17 -7 -25 -8 -2 41 82 63 61 124 130 151 191 173 181 111 17 23 0 -55 -105 -74 -39 -52 -114 -128 -54 -66 -82 -59 -19 -21 -81 -71 -108 -59 -35 -103 -48 12 -92 -93 -70 -100 -38 -24 -61 -69 -45 -38 -27 -82 -64 -6 -43 8 39 23 44 -29 -89 -73 -22 -22 -86 -44 -53 -81 393 984 365 -108 31 -49 -73 11 -47 -79 -31 1 11 19 37 37 50 64 78 115 147 140 179 207 130 132 94 26 -53 -89 -47 -98 -86 -35 -76 -84 -132 -51 -3 -39 -41 -77 -43 -7 -32 -81 -27 -52 -103 -73 -48 -27 -62 -78 -7 -32 -62 -30 -50 -85 -64 -29 -13 -34 -56 -25 12 11 11 -26 -100 -33 -34 -84 -65 -31 -61 -146 318 923 447 -73 -39 -33 -43 -64 -51 -16 12 -1 -22 0 1 67 50 55 126 131 167 182 170 183 202 121 49 -4 -62 -74 -100 -84 -47 -113 -115 -55 -145 -54 -52 -78 -33 -92 -69 -75 -45 -57 -53 -108 -71 -48 -97 -108 -56 -31 -77 -87 -31 -43 -63 -74 -57 -22 -48 -78 -27 25 56 30 21 -60 -104 -25 -62 -62 -56 -47 -48 102 736 708 -60 -120 -17 -63 0 -40 -27 -7 -49 19 38 -5 11 40 101 101 84 121 136 148 185 173 158 79 37 9 -74 -88 -84 -77 -37 -87 -92 -90 -58 -50 -83 -72 -38 -1 -56 -79 -13 -34 -58 -88 -36 -36 -35 -8 -101 -50 -20 -41 -46 -18 -31 -112 -34 7 -42 -13 -53 -39 97 66 17 -104 -75 -41 -74 -22 -44 -68 -116 128 852 635 -46 -122 -66 -24 -7 -36 -18 -44 28 6 -44 0 58 71 56 58 141 176 103 148 226 179 144 87 30 1 -50 -75 -68 -118 -62 -70 -82 -56 -112 -80 -32 -73 -38 -45 -53 -30 -32 -10 -65 -113 -65 -54 -58 -65 -85 -33 -23 -66 -69 -26 -28 -89 -31 -13 -44 -10 -21 -41 -65 7 92 52 -17 -43 -48 -73 -43 -65 -56 -33 -71 437 970 508 -33 -67 -42 -17 -17 0 -36 -37 22 26 15 11 31 106 74 97 120 137 194 188 154 148 162 80 -3 -16 -80 -105 -61 -72 -118 -58 -58 -79 -60 -74 -46 -53 -65 -24 -61 -66 -23 -87 -29 -31 -133 -18 -18 -55 -69 -77 -38 -56 -20 5 -71 -80 -23 -23 -49 -44 -3 19 35 5 -48 -52 -98 -12 -72 -94 -44 -36 -129 496 957 234 -48 -50 -63 -37 -48 -13 -27 -10 -55 23 53 -8 71 47 65 131 114 168 178 164 215 187 118 98 -5 -50 -74 -102 -88 -126 -52 -41 -138 -81 -55 -104 -35 -54 -68 -73 -74 -19 -57 -95 -78 -35 -57 -62 -36 -76 -63 -69 -70 -76 -23 -43 -74 -43 -53 -58 -60 -29 6 37 51 -40 -43 -61 -89 -28 -62 -45 -118 -40 638 872 136 -73 -41 -46 -25 -79 -14 -18 31 -2 -65 103 37 7 45 122 100 82 151 187 164 147 132 172 109 -18 -64 -68 -108 -114 -89 -122 -63 -76 -44 -57 -113 -60 -45 -65 -54 -29 -48 -65 -63 -48 -44 -57 -36 -88 -76 -55 -82 -34 14 -57 -96 -55 -9 -33 -63 -1 58 40 -40 -48 -63 -62 -72 -39 -46 -63 -99 113 748 762 15 -111 11 -58 -51 -48 2 -82 -34 38 -19 9 9 55 72 77 70 135 161 168 209 167 158 76 19 32 -68 -104 -54 -80 -76 -87 -40 -40 -134 -83 -59 -46 -12 -66 -36 -48 -29 -36 -83 -77 -67 -38 -69 -39 -48 -55 -58 -59 -4 -37 -52 -51 -17 -15 -36 14 30 75 85 -66 -74 -34 -37 -29 -22 17 -112 0 768 875 86 -61 26 -50 -1 -29 2 22 2 17 38 82 27 21 102 118 122 198 229 186 228 208 199 128 50 37 -25 -51 -48 -64 -108 -62 -55 -82 -65 -45 -38 -63 -9 -50 -59 32 -12 -71 -10 -14 -72 -37 -12 -42 -64 -30 -25 -34 -20 -4 -41 -46 18 21 59 72 9 -58 -29 -25 -26 -43 -5 -54 -79 37 712 785 20 -51 22 -40 -18 -20 12 -31 15 -3 29 80 30 73 97 106 121 151 210 193 175 221 190 145 73 -34 1 -88 -95 -52 -80 -75 -58 -33 -68 -76 -71 -12 -11 -60 -43 -54 -21 11 -42 -20 -49 -84 -19 -31 -59 -31 -42 -31 -11 -84 -50 -49 -51 20 12 43 23 21 -14 -80 -38 -46 -71 -37 -66 -67 103 772 866 -24 -98 73 -23 -38 -12 -15 -18 1 -22 19 23 16 51 70 100 122 135 150 193 187 190 195 113 33 -15 1 -46 -155 -83 -49 -63 -38 -111 -113 -33 -57 -43 -28 -29 -42 -75 -77 -34 11 -64 -50 -13 -85 -93 -79 -14 -13 -40 -36 -33 -30 -42 -93 -30 14 -35 8 20 8 37 2 -55 -34 6 -28 -92 -10 -33 -76 67 732 882 80 -49 42 -47 -14 -72 -13 -6 -38 9 -4 20 86 33 61 73 92 169 142 177 192 144 182 122 35 0 -44 -84 -79 -40 -67 -94 -75 -84 -71 -30 -51 -44 -28 -54 -54 -43 -36 -38 -96 -23 -20 -71 -57 -44 -39 -47 -52 -89 -71 -34 -66 -80 -40 -16 -33 -60 -21 -52 -47 -15 -47 73 26 -21 -2 -73 -49 -46 -48 -63 -64 -98 30 765 819 -3 -66 -5 -33 -14 -87 -39 -8 -8 -17 20 -6 13 56 47 77 113 115 129 170 231 186 151 102 17 65 -95 -127 -50 -138 -89 -108 -105 -81 -79 -68 -107 -28 -89 -83 -57 -95 -25 -77 -81 -106 -92 -56 -114 -59 -22 -74 -61 -121 -81 -45 -84 -33 -44 -76 -75 -32 -47 -66 2 -33 -18 69 0 -116 -103 -21 -48 -59 -63 -134 -112 39 733 769 -48 -122 -61 -106 -25 -20 -42 -36 -61 -38 50 -16 -21 61 50 69 85 131 179 168 168 168 169 108 7 -2 -43 -118 -101 -103 -86 -143 -126 -44 -85 -128 -115 -72 -19 -58 -75 -53 -84 -109 -43 -53 -64 -58 -95 -129 -91 -59 -74 -85 -67 -71 -125 -76 -37 -70 -44 -80 -96 -6 -4 -5 -22 -67 -90 -50 -85 -92 -18 -81 -117 -51 494 959 324 -135 -2 -22 -56 -88 -32 -56 -38 -18 -7 10 4 32 11 47 80 116 166 170 144 138 151 145 61 -46 -51 -52 -83 -140 -85 -79 -140 -90 -77 -90 -78 -53 -80 -81 -98 -98 -26 -78 -93 -57 -55 -84 -73 -80 -72 -84 -63 -64 -74 -36 -60 -54 -57 -111 -43 -24 -30 -82 -83 -19 -36 -20 20 29 -61 -15 9 -78 -92 -95 -84 -99 -52 524 927 272 -111 -62 -49 -39 -53 5 -21 -33 -28 -31 -22 -9 44 89 59 88 104 135 144 158 169 169 168 95 10 -51 -66 -115 -62 -92 -128 -82 -39 -82 -107 -25 -94 -80 -10 -83 -55 -30 -63 -98 -38 -61 -43 -38 -81 -46 -110 -60 -56 -71 -21 -61 -90 -43 -31 -76 -47 -28 -10 -32 -61 16 63 -34 -48 -17 -75 -59 -59 -99 -63 -43 163 815 693 20 -130 -33 8 -12 -61 -35 -36 -9 -19 7 9 16 52 110 98 96 148 156 190 189 203 138 96 80 -26 -63 -85 -111 -85 -86 -123 -122 -119 -64 -46 -70 -59 -61 -71 -57 -65 -66 -62 -55 -51 -107 -71 -38 -74 -32 -101 -68 -39 -96 6 -45 -109 -24 -48 -53 33 42 16 0 -52 -64 -51 -41 -67 -93 -74 -70 -23 589 899 208 -109 12 -78 -9 -30 -52 0 -53 -40 41 -14 36 77 40 53 93 141 161 200 193 209 201 140 94 -2 -75 -45 -70 -70 -100 -71 -58 -117 -44 -36 -73 -79 -68 -3 -46 -71 -8 18 -84 -75 -57 -34 -92 -13 12 -102 -57 -43 -13 -48 -49 -67 -48 -21 -43 -51 -27 63 33 -36 -4 -50 -58 -26 -25 -53 -95 -75 -34 544 965 294 -65 -36 -52 -38 -70 -16 2 2 -16 -44 6 93 44 19 92 106 110 167 179 158 196 183 161 90 23 -51 -52 -46 -140 -82 -45 -107 -49 -56 -113 -55 -57 -56 -35 -47 -79 -14 -29 -83 -30 -54 -70 -29 -55 -44 -99 -72 -14 -9 -30 -39 6 -46 -39 -42 -31 -8 5 106 37 -31 -24 -66 -23 -4 -84 -31 -59 -90 282 868 632 -37 -147 10 -6 -7 -46 -69 -2 28 17 51 50 -3 14 93 123 131 151 198 222 195 167 193 97 50 -27 -62 -28 -92 -71 -87 -69 -70 -65 -39 -16 -125 -86 -2 -64 -45 -61 3 -21 -34 -63 -103 -43 -25 -37 -48 -63 -71 -59 -75 -77 -36 -14 -59 -42 -19 17 20 -14 -54 -71 -87 -84 -44 -25 -82 -78 6 577 848 120 -83 19 -63 -64 -53 2 10 -32 -26 10 -15 53 88 16 109 136 106 196 235 225 194 163 130 47 -10 -39 -76 -90 -119 -103 -91 -99 -97 -75 -78 -72 -62 -69 -82 -77 -23 -40 -82 -64 -58 -87 -66 -76 -100 -61 -50 -58 -55 -83 -89 -38 -25 -68 38 45 6 -25 -69 -36 -73 -94 -60 -38 -59 -135 212 937 676 -59 -49 -29 -75 -41 -70 -29 40 -20 -29 -12 22 31 52 50 104 142 137 176 182 132 218 169 
#II[uV]
-6803 -6530 -5371 -5094 -3950 -3704 -2686 -2434 -1387 -1158 8 -95 -68 -57 -82 -70 -28 -31 -55 -30 -4 -32 -21 0 9 -98 -72 -47 -60 -36 -59 -72 -71 -104 -78 -28 35 46 94 95 44 -44 -93 -106 -102 -113 -67 -94 -105 -51 549 1505 771 -211 -188 -122 -44 -63 -11 -74 -63 -32 -3 62 39 70 96 79 156 170 194 251 253 255 277 210 130 51 9 -32 -116 -116 -138 -129 -77 -72 -88 -77 -95 -88 -57 -46 -65 -98 -78 -80 -95 -90 -91 -117 -125 -88 -80 -95 -95 -133 -104 -27 2 72 119 41 -9 -93 -170 -117 -107 -128 -89 -127 -61 17 1009 1585 281 -290 -169 -167 -62 -120 -68 -91 -75 -38 -53 -54 34 -7 24 115 102 134 170 179 243 209 162 166 60 -6 -36 -88 -113 -131 -111 -73 -122 -111 -71 -71 -38 -52 -50 -42 -42 -65 -39 -26 -63 -44 -60 -91 -63 -85 -113 -82 -73 -71 -62 -25 56 20 107 80 3 -51 -101 -133 -110 -112 -122 -101 -134 -57 574 1347 700 -168 -188 -140 -107 -94 -56 -107 -45 -44 -12 3 0 57 61 80 121 192 221 210 248 251 243 220 114 49 -7 -50 -87 -111 -80 -135 -73 -72 -106 -85 -63 -52 -45 -31 -101 -63 -73 -83 -56 -122 -122 -91 -95 -91 -108 -97 -86 -112 -91 -80 -98 -113 -45 19 46 96 61 -30 -61 -116 -132 -126 -112 -113 -92 -127 -67 515 1475 862 -189 -222 -67 -76 -106 -72 -22 -10 -35 -44 -10 13 41 94 130 114 170 205 248 254 257 248 186 82 53 5 -67 -126 -155 -103 -65 -164 -129 -73 -123 -81 -80 -46 -50 -110 -85 -86 -80 -64 -84 -98 -46 -97 -88 -51 -80 -50 -68 -35 -62 -73 -36 -37 -52 -60 20 21 66 130 56 0 -67 -109 -96 -100 -89 -139 -112 -74 -42 671 1528 505 -270 -138 -127 -91 -88 -108 -98 -57 -20 -24 -4 28 48 97 125 96 185 217 232 292 330 269 252 180 64 -2 -94 -79 -92 -95 -55 -93 -90 -93 -63 -38 -37 -53 -53 -56 -41 -65 -76 -45 -79 -106 -75 -96 -76 -100 -124 -66 -77 -107 -61 -103 -125 -79 -79 -66 -24 -10 32 72 42 -41 -72 -130 -100 -112 -142 -109 -92 -95 -2 636 1460 740 -75 -164 -172 -63 -73 -54 -68 -34 -22 -42 0 50 74 73 85 141 168 204 229 229 270 265 180 146 5 -56 -62 -118 -106 -97 -126 -98 -56 -143 -85 -53 -41 -40 -63 -82 -84 -35 -61 -52 -90 -76 -43 -106 -81 -29 -39 -77 -76 -31 -46 -59 -54 -19 -8 -10 22 46 132 126 45 -9 -64 -126 -73 -83 -84 -95 -84 -35 234 1233 1188 -90 -331 -145 -81 -68 -118 -60 -66 -45 -6 -33 11 19 68 112 124 147 184 209 243 282 293 247 149 97 31 -46 -47 -88 -113 -59 -69 -124 -80 -83 -86 -45 -75 -59 -1 -83 -80 -50 -66 -40 -120 -90 -51 -79 -67 -129 -91 -90 -104 -82 -95 -108 -147 -91 -38 -50 21 23 37 91 3 -57 -137 -125 -91 -150 -104 -130 -132 -85 237 1338 1163 -128 -295 -107 -77 -70 -98 -65 -40 -8 -39 -41 16 40 83 91 95 159 248 236 255 304 268 245 152 59 19 -90 -138 -128 -167 -141 -124 -150 -133 -138 -103 -68 -123 -86 -93 -113 -68 -84 -104 -105 -128 -118 -91 -111 -112 -109 -85 -64 -79 -115 -75 -87 -109 -72 -59 -71 -46 -31 11 28 78 68 -37 -69 -107 -143 -130 -124 -126 -139 -70 -43 707 1527 583 -277 -198 -169 -104 -107 -90 -108 -73 -68 -38 9 -17 3 77 63 149 144 206 243 243 241 209 221 156 38 -24 -88 -102 -130 -137 -171 -124 -98 -98 -88 -102 -98 -91 -103 -64 -62 -115 -85 -104 -110 -101 -157 -78 -81 -133 -122 -160 -120 -111 -105 -92 -124 -147 -102 -90 -63 8 16 49 -10 -80 -88 -128 -151 -101 -149 -146 -172 -103 -13 829 1532 451 -272 -250 -193 -96 -117 -56 -107 -45 -45 -45 0 -7 40 41 101 134 171 213 219 243 248 221 181 130 26 -45 -110 -134 -136 -172 -134 -114 -170 -127 -97 -125 -80 -95 -97 -86 -103 -91 -103 -117 -120 -89 -79 -114 -89 -118 -118 -80 -95 -100 -59 -80 -92 -96 -74 -4 11 66 75 14 -5 -96 -129 -126 -146 -133 -113 -132 -107 -17 1021 1557 145 -382 -182 -140 -96 -136 -105 -80 -22 -71 -67 0 -1 13 67 87 117 159 204 266 255 265 245 207 119 7 -95 -93 -124 -156 -117 -162 -103 -128 -109 -61 -126 -95 -81 -92 -78 -86 -80 -116 -91 -72 -109 -97 -90 -125 -121 -113 -125 -114 -72 -111 -150 -107 -70 -6 -13 22 94 -26 -94 -90 -155 -143 -138 -143 -106 -158 -129 138 1203 1399 -68 -387 -90 -119 -71 -99 -41 -74 -67 -29 -4 13 38 79 77 121 169 194 230 278 294 284 275 160 74 31 -77 -124 -101 -153 -151 -141 -127 -138 -173 -131 -106 -93 -107 -117 -115 -89 -104 -110 -118 -126 -119 -127 -126 -114 -114 -109 -108 -106 -76 -72 -109 -95 -58 -3 34 71 74 24 -11 -107 -107 -115 -126 -139 -87 -101 -127 115 1160 1523 135 -348 -156 -154 -53 -106 -80 -59 -55 -70 -39 1 -4 13 74 116 121 196 249 235 267 277 263 188 103 31 -54 -87 -91 -109 -146 -89 -98 -83 -51 -64 -37 -45 -17 -27 -60 6 -21 -58 -24 -39 -59 -39 -40 -51 -61 -42 -8 -39 -46 -15 -16 56 75 109 146 64 -14 -72 -90 -77 -63 -80 -42 -94 -21 198 1202 1444 120 -237 -105 -78 -14 -50 0 -14 2 0 43 122 108 135 149 194 233 232 299 328 329 364 305 268 203 61 37 -63 -59 -28 -52 -43 -22 -15 -22 -33 -21 16 -12 -53 -20 -32 -25 -17 -34 -19 -50 -83 -42 -45 -59 -56 -68 -44 -46 -76 -64 -25 35 58 87 93 -2 -45 -40 -116 -94 -58 -145 -79 -129 -70 173 1231 1538 -9 -344 -68 -113 -76 -52 -42 -56 -22 -35 -16 -2 23 44 88 159 165 167 247 278 265 282 270 173 55 21 -19 -116 -172 -136 -122 -122 -95 -134 -123 -106 -70 -83 -94 -43 -66 -109 -82 -66 -33 -67 -88 -36 -117 -95 -82 -55 -35 -91 -87 -111 -69 -68 -101 -62 -32 54 33 63 78 -26 -43 -75 -105 -118 -121 -185 -107 -147 -101 98 1162 1531 6 -360 -86 -117 -83 -141 -86 -76 -73 -48 -36 54 77 24 90 77 155 245 264 299 291 282 283 214 103 37 -49 -91 -120 -101 -96 -134 -115 -109 -85 -71 -85 -52 -82 -116 -63 -81 -85 -76 -134 -109 -103 -120 -119 -106 -93 -111 -116 -129 -117 -101 -112 -110 -95 -68 -74 -111 -83 -49 0 33 44 103 20 -84 -40 -96 -106 -97 -97 -73 -144 -77 177 1200 1448 19 -333 -103 -117 -45 -102 -75 -54 -32 -35 16 23 28 71 70 108 158 162 184 284 322 289 248 192 82 39 -60 -95 -110 -161 -126 -139 -115 -140 -93 -66 -118 -91 -85 -54 -68 -86 -37 -66 -82 -67 -91 -57 -64 -75 -41 -58 -84 -124 -68 -75 -99 -36 -72 -71 -74 -49 -24 5 35 59 77 32 -76 -143 -135 -89 -107 -133 -101 -173 -89 243 1221 1301 26 -315 -168 -139 -71 -68 -70 -52 -72 -49 33 -6 26 90 81 132 147 202 252 278 292 265 245 214 107 15 -23 -75 -90 -121 -102 -130 -105 -38 -67 -98 -95 -42 -42 -66 -49 -89 -60 -97 -93 -60 -75 -64 -85 -102 -154 -114 -85 -85 -64 -78 -101 -67 -58 -88 -60 0 20 68 116 25 -28 -41 -83 -88 -94 -126 -51 -87 -76 27 862 1703 444 -367 -71 -81 -57 -86 -29 -70 -35 -39 -3 37 27 67 48 90 139 215 249 252 276 284 289 252 112 8 -29 -82 -137 -139 -105 -109 -156 -145 -93 -118 -84 -56 -105 -79 -95 -58 -58 -96 -60 -70 -69 -79 -92 -99 -79 -69 -86 -99 -89 -29 -102 -131 -56 -58 -78 -112 -72 -32 -10 18 49 64 -15 -41 -103 -114 -82 -118 -172 -117 -150 -113 -3 827 1611 365 -403 -141 -106 -72 -110 -47 -86 -46 -37 -24 -7 54 66 92 118 170 218 240 269 326 303 302 276 171 72 -20 -65 -119 -128 -105 -142 -108 -65 -85 -85 -74 -103 -73 -49 -95 -71 -81 -79 -102 -80 -90 -101 -61 -105 -70 -109 -84 -80 -121 -79 -99 -94 -57 -46 -78 -89 -13 41 24 52 58 66 -34 -72 -58 -137 -73 -110 -119 -104 -20 322 1306 1322 87 -297 -155 -74 -45 -114 -66 -55 -19 -34 -48 -4 5 39 82 85 136 146 212 261 243 273 217 163 106 -26 -52 -108 -154 -132 -141 -147 -121 -118 -96 -92 -64 -90 -67 -66 -67 -64 -90 -65 -60 -90 -115 -82 -59 -108 -97 -77 -99 -95 -90 -59 -73 -109 -38 -5 4 56 84 15 -46 -130 -141 -118 -112 -148 -123 -143 -83 44 962 1547 344 -260 -132 -176 -49 -83 -53 -63 -58 -14 19 -8 28 77 77 129 176 232 277 288 306 306 317 247 152 82 -17 -53 -74 -90 -78 -73 -93 -81 -17 -36 -74 -77 -56 -14 -46 -59 -31 -27 -92 -65 -66 -65 -87 -59 -17 -117 -58 -49 -29 -51 -57 -44 -79 -20 25 63 110 144 64 -18 16 -67 -77 -33 -64 -23 -87 -17 72 916 1738 410 -279 -96 -128 4 -35 9 -13 -13 21 22 35 91 133 77 157 193 209 290 314 316 364 334 310 203 126 16 -79 -52 -76 -115 -65 -79 -45 -39 -75 -47 -35 -13 -32 -37 -8 18 -6 -21 -3 -39 -52 -35 -38 -29 -45 -23 -20 -31 -37 -24 0 -38 -29 27 83 83 145 124 31 -59 -62 -78 -84 -65 -116 -91 -63 -41 449 1411 997 -162 -249 -79 -59 -50 -53 -77 -63 -23 -13 29 56 25 51 145 164 184 243 310 324 327 318 285 204 84 28 -24 -68 -121 -127 -147 -107 -95 -105 -67 -56 -111 -121 -60 -84 -103 -93 -81 -69 -113 -111 -125 -101 -81 -105 -115 -143 -82 -133 -150 -121 -95 -47 -37 -22 20 79 11 -80 -123 -136 -163 -126 -147 -91 -125 -80 117 1058 1614 287 -312 -165 -182 -115 -139 -77 -79 -75 -62 -55 -43 4 39 20 60 122 96 161 226 240 219 192 124 38 -16 -85 -132 -132 -190 -164 -139 -146 -131 -119 -148 -121 -85 -115 -92 -89 -113 -84 -122 -82 -72 -94 -114 -113 -104 -91 -106 -79 -98 -96 -74 -22 19 -2 115 16 -41 -70 -128 -110 -172 -160 -118 -93 -129 -92 372 1377 978 -162 -254 -149 -135 -119 -126 -118 -53 -74 -52 -23 -25 27 69 45 120 160 161 228 252 263 305 253 
#III[uV]
-9567 -9025 -7581 -7109 -5644 -5140 -3777 -3333 -1879 -1413 19 31 11 3 30 -1 24 27 22 32 4 27 26 11 39 3 0 48 -12 -31 33 -29 -39 -26 0 28 97 112 97 57 -26 -29 -17 -82 -44 -34 -31 -26 -29 62 233 516 272 -115 -135 -40 -34 -47 2 -42 -17 17 23 11 -9 44 56 4 53 78 81 105 105 113 64 52 68 19 30 -4 -14 -2 -41 -59 -36 -44 -34 -17 -52 -17 -2 4 -24 -56 -27 -43 -19 -42 -53 -42 -6 -62 -68 -45 -49 -60 -25 39 36 63 116 -25 -87 -47 -84 -50 -42 -72 -25 -90 -7 63 392 631 116 -187 -200 -128 -37 -80 -40 -76 -64 -33 -33 -21 -64 -72 -2 -14 -3 7 10 56 50 35 25 28 28 2 8 -33 -11 0 -36 -51 -15 5 -5 -19 29 2 -17 12 13 14 -7 -6 3 -31 1 -3 7 -20 -30 3 -27 -35 -8 29 91 37 102 59 -58 -18 -33 -43 -51 -103 -43 -49 -21 61 264 478 203 -99 -130 -86 -47 -44 -50 -40 -39 -62 -8 10 -3 -2 36 46 52 25 61 126 100 78 88 88 65 59 32 5 -18 -19 -32 -18 21 -15 -37 2 -1 4 -12 -13 11 -2 -30 -35 -35 -49 -60 -47 -7 -32 -79 -41 -33 -36 -29 -64 -16 -42 -4 88 54 64 47 -49 -27 -53 -76 -65 -63 -45 -41 0 73 190 549 304 -103 -144 -91 16 -24 -64 0 -27 -28 -18 -2 15 0 11 66 53 46 74 96 62 83 67 75 64 29 5 -11 -20 -80 -63 -12 -49 -1 -19 -57 0 -21 -26 -29 -29 -13 22 -20 -29 19 -49 -59 -4 5 18 20 -12 -44 26 7 -28 1 -9 29 4 26 64 58 90 33 -44 -38 -19 -22 -77 -66 -53 -67 -21 39 278 543 139 -161 -169 -77 -18 -100 -61 -19 -25 -22 -35 -23 -8 11 46 60 17 70 70 92 112 122 138 120 85 38 50 -5 -31 5 -9 -20 -16 -6 38 -11 -35 1 -11 23 -12 -33 -32 5 -17 -27 -3 -2 -48 -49 -37 -46 -59 -44 -44 -31 -52 -40 -14 -50 -53 10 46 57 59 31 -53 -45 -30 -66 -77 -58 -43 -60 -33 143 317 536 292 -2 -125 -139 -19 -8 -3 -52 -46 -21 -19 0 48 7 22 30 15 37 36 47 59 86 62 58 96 10 6 12 -17 -21 -49 -13 17 -1 2 -30 0 37 -7 29 -13 -8 10 -4 1 17 -5 5 -9 26 27 -8 0 11 0 -2 4 19 37 14 37 101 73 106 69 14 -30 -3 -22 -48 -20 -21 -38 -36 12 131 497 480 -29 -210 -128 -18 -67 -78 -32 -58 4 -26 -72 17 7 27 10 22 63 63 73 94 96 119 89 70 59 21 28 40 -4 -35 -22 17 -32 9 -24 -36 37 -3 -20 0 -27 0 -36 -32 18 -32 -53 -15 -44 -59 -28 -40 -69 -63 -36 -76 -76 -35 -57 -45 -8 34 76 76 -5 -62 -74 -33 -50 -49 -76 -81 -85 -64 31 109 485 527 -82 -173 -40 -52 -63 -62 -47 3 -36 -46 3 16 -17 11 34 37 18 71 133 107 78 88 101 65 28 17 -40 -63 -59 -48 -78 -54 -68 -77 -26 -23 -36 -49 -47 -48 -60 -37 -51 -94 -40 -15 -53 -37 -52 -47 -24 -52 -41 -13 -45 -48 -59 -20 -40 -45 -26 -36 -9 52 94 70 -24 -90 -52 -63 -94 -57 -80 -61 -83 -36 27 269 556 75 -244 -131 -126 -87 -89 -90 -72 -36 -90 -64 -5 -29 -27 -29 -11 51 24 68 48 55 86 61 58 76 41 -8 -7 3 -68 -64 -52 -66 -40 -18 -28 -27 -51 -38 -37 -39 -1 -48 -61 -17 -81 -69 -23 -59 -63 -77 -53 -82 -82 -55 -85 -97 -52 -67 -79 -67 -14 53 19 30 -46 -85 -40 -75 -52 -89 -76 -51 -127 -67 115 333 575 217 -224 -200 -129 -59 -69 -43 -79 -34 10 -69 -54 1 -30 -6 35 3 57 45 41 78 33 34 62 31 31 5 -35 -31 -47 -45 -82 -72 -32 -46 -42 -21 -45 -41 -29 -12 -28 -72 -45 -21 -42 -53 -22 -52 -52 -42 -54 -10 -25 -24 -36 -36 -18 -52 -20 53 72 96 68 -23 -56 -55 -85 -65 -57 -104 -50 -87 11 22 382 685 9 -308 -140 -93 -70 -57 -91 -61 -54 -68 -2 -102 -39 6 21 -35 16 77 52 79 90 118 113 35 10 25 -31 -24 -16 -41 -27 -39 -40 -51 -65 -4 -12 -34 -36 -27 -23 -56 -32 -50 -28 -23 -65 -39 -54 -37 -44 -57 -42 -79 -87 -54 -54 -51 -61 26 50 24 36 -67 -54 -42 -91 -80 -66 -103 -59 -95 -29 25 455 637 -84 -275 -102 -61 -20 -50 -44 7 -33 -68 15 4 28 23 4 43 98 58 68 109 84 117 117 83 54 -1 -9 -20 -46 -73 -75 -53 -86 -97 -38 -47 -47 -47 -95 -50 -79 -40 -74 -74 -34 -49 -51 -88 -57 -74 -66 -53 -49 -46 -71 -35 -57 -44 -40 11 70 57 43 -50 -97 -40 -33 -80 -89 -110 -65 -118 -14 115 392 648 48 -286 -183 -104 -52 -76 -83 -82 -57 -88 -77 -81 -31 -7 -27 -1 -1 -2 19 48 38 69 64 59 52 -5 -28 -36 -43 -45 -37 -26 -43 0 14 -18 0 18 -8 23 -1 -26 -9 12 -13 -24 12 -2 -28 -9 3 -12 17 -4 -26 -10 24 103 57 88 87 -8 -24 -13 -60 -51 -36 -37 -37 -40 58 160 490 658 99 -185 -127 -37 3 -29 -11 17 -13 3 13 41 78 62 51 88 111 81 89 134 153 142 115 123 130 96 35 25 36 23 28 32 35 17 46 43 49 29 0 7 22 22 -3 -28 7 1 -1 0 -22 -13 0 -24 -25 -13 -35 8 -14 23 87 37 74 50 -25 -66 -26 -35 -55 -11 -73 -41 -63 -3 70 458 671 15 -246 -142 -89 -37 -40 -27 -38 -24 -13 -36 -25 6 -6 18 58 43 32 96 84 78 92 75 59 21 36 -20 -69 -17 -53 -73 -58 -57 -23 -9 -72 -13 -39 -66 -13 -23 -33 -5 -32 -45 -2 -38 -23 -32 -2 -3 -41 -22 -50 -51 -77 -38 -25 -7 -31 -46 90 25 43 69 -64 -46 -19 -70 -125 -93 -93 -97 -114 -25 30 430 649 -74 -310 -129 -70 -68 -68 -73 -69 -35 -57 -32 33 -9 -9 29 3 63 75 122 122 99 138 101 91 67 37 -4 -6 -41 -61 -29 -40 -39 -24 -14 -41 -34 -7 -54 -61 -8 -38 -49 -38 -37 -85 -83 -49 -61 -61 -53 -64 -63 -39 -45 -66 -46 -30 -54 -52 -41 -51 -61 3 46 49 92 30 -6 -63 -38 -23 -56 -50 -48 -10 -79 20 146 435 628 22 -266 -97 -83 -31 -15 -36 -45 -23 -17 -3 29 14 14 23 30 44 46 55 114 90 103 97 89 64 -25 35 31 -60 -23 -37 -31 -10 -59 -13 2 -11 -63 3 28 -11 9 -11 11 -1 38 1 0 50 -16 -19 15 -22 -2 12 -30 -15 -3 -27 5 1 -17 22 72 33 92 95 -37 -76 -26 -31 -67 -58 -73 -37 -38 22 203 487 532 75 -192 -107 -33 -46 -47 -28 -16 -11 -11 -17 9 48 28 31 63 62 71 72 110 123 97 75 106 99 17 20 42 10 -17 -15 12 21 5 17 29 20 29 -22 -7 25 -35 24 12 -50 -7 -10 -6 9 27 -62 -55 -10 0 3 -6 24 9 -20 -18 -15 79 117 74 120 30 -6 26 6 -38 -8 -34 -33 -6 41 78 368 744 119 -231 -69 -59 0 1 3 -14 3 -20 4 27 23 34 37 43 59 98 83 81 131 146 138 107 51 54 22 -30 -54 0 -20 -29 -15 -54 -16 -28 -6 -2 -25 2 2 40 -31 -18 33 -12 -14 5 -19 -18 -7 14 -22 -34 -14 7 -41 -77 1 52 -34 -88 -42 49 73 37 85 84 -35 -70 -41 -98 -92 -40 -80 -21 -66 -13 48 302 683 93 -292 -78 -56 -33 -56 -53 -65 -12 -8 6 15 64 22 3 59 81 114 104 125 168 133 133 107 76 61 31 0 -3 -66 -13 -13 -25 -25 -2 22 -48 -8 7 -38 -12 -15 -51 -15 -4 -42 -28 -57 -23 -23 -24 1 -24 -24 -50 -57 -37 -4 -13 -14 -1 -41 14 52 56 114 41 2 0 -23 -40 -62 -13 -51 -19 -40 22 158 491 628 66 -167 -121 -82 -33 -52 -30 -19 -9 -15 -55 -14 -10 -13 -28 -12 40 -2 55 70 53 69 79 67 26 0 11 -23 -43 -46 -54 -24 0 1 -32 -46 5 -30 -5 4 -9 0 -23 -3 -4 -39 -8 -10 -21 -33 -65 24 -31 -56 5 -66 -28 0 -14 42 57 23 41 0 -45 -78 -77 -66 -71 -81 -29 -69 -12 67 373 647 135 -151 -144 -97 -40 -53 -1 -64 -5 26 -21 6 -7 0 37 76 82 90 116 87 112 96 116 107 57 85 57 -8 -4 -19 22 -1 -34 36 27 0 -1 2 11 -10 0 12 -23 -46 -7 10 -8 -30 4 -46 -29 -14 0 -6 -16 -2 -8 22 -30 1 68 114 138 81 30 18 21 -17 -18 -6 -39 30 8 57 106 371 773 116 -213 -59 -76 42 34 25 -16 -15 37 67 29 -1 88 58 65 86 99 123 134 158 167 150 148 113 103 68 -27 -6 64 -32 -20 28 4 16 37 8 22 43 2 9 70 33 22 61 26 14 18 -6 16 15 53 48 -5 -22 -6 14 -7 7 9 69 114 92 140 18 -5 -28 -38 -12 -61 -61 -31 -59 -4 48 167 543 365 -124 -102 -89 -52 -43 -7 -8 -61 -52 -30 -21 5 29 36 52 40 53 91 112 101 131 150 92 107 34 55 38 -40 -28 -55 -60 -37 -25 -39 -28 -40 13 -34 -58 -19 -58 -32 -84 -48 -79 -48 -21 -58 -55 -68 -67 -80 -11 -74 -74 -43 -58 -32 22 20 40 62 -9 -66 -69 -65 -76 -42 -102 -65 -42 -1 110 480 765 167 -228 -185 -118 -51 -85 -79 -90 -43 -35 -65 -28 -49 -48 4 -49 -13 -9 -35 -8 14 25 28 -5 -9 -6 -45 -56 -42 -71 -61 -48 -47 -33 -44 -70 -49 -23 -45 -9 -11 -89 -43 -39 -17 -13 -6 -48 -37 -3 -29 -56 -21 -43 -13 14 15 44 66 76 -28 -47 -44 -58 -73 -98 -65 -58 -54 -69 43 160 439 301 -102 -205 -119 -59 -78 -55 -88 -93 -54 -23 -10 -47 -4 16 -5 16 17 24 52 69 131 86 83 
#avR[uV]
2020 2017 1581 1539 1128 1133 798 767 448 452 0 111 74 59 97 69 40 45 67 46 6 46 34 5 10 100 72 71 54 21 76 57 51 91 78 42 13 9 -45 -66 -58 30 84 65 80 95 51 81 90 82 -432 -1247 -634 153 121 102 26 40 12 53 54 41 15 -56 -44 -48 -68 -77 -130 -131 -153 -198 -200 -198 -244 -184 -95 -41 6 30 108 115 117 99 59 49 71 68 68 79 56 49 52 70 64 58 85 69 64 95 121 56 46 73 70 103 91 46 15 -41 -61 -53 -34 69 128 92 85 91 76 82 57 14 -813 -1269 -223 196 69 103 43 80 48 53 43 21 36 43 -67 -28 -26 -122 -104 -130 -165 -151 -218 -191 -150 -152 -46 7 40 71 108 131 93 47 115 114 68 61 53 53 42 48 49 72 35 22 65 28 61 89 67 75 97 83 60 53 58 39 -10 -1 -55 -50 -32 42 84 111 85 60 100 77 123 88 -442 -1108 -599 118 123 96 83 72 30 87 26 13 8 1 -1 -58 -42 -57 -95 -179 -191 -146 -198 -212 -199 -176 -81 -19 23 53 78 101 64 125 83 65 87 86 63 54 39 24 107 62 57 66 38 97 92 68 91 75 68 76 69 94 76 47 90 92 43 24 -19 -63 -37 5 47 89 94 93 81 91 72 127 104 -420 -1201 -710 137 150 21 84 93 40 21 -3 21 34 9 -5 -41 -88 -96 -87 -147 -168 -199 -222 -215 -214 -148 -50 -38 -2 61 116 114 71 59 139 129 64 94 81 70 32 36 95 78 97 69 50 93 73 16 94 91 60 90 44 46 48 65 59 37 32 67 62 -7 10 -37 -84 -39 -21 48 99 85 61 55 112 78 63 61 -532 -1256 -435 189 53 88 82 38 77 89 44 9 6 -7 -33 -42 -74 -95 -87 -150 -182 -186 -235 -269 -199 -192 -137 -45 28 92 63 95 91 45 85 87 112 57 21 38 47 65 49 24 49 79 36 66 104 74 72 51 81 101 37 55 84 46 77 105 72 54 39 29 33 -3 -42 -26 15 49 115 67 73 113 87 62 78 74 -477 -1192 -593 74 102 102 53 69 52 42 11 11 32 0 -26 -70 -61 -70 -134 -149 -186 -206 -200 -227 -233 -150 -98 0 59 68 109 95 72 119 107 55 144 70 53 59 36 78 76 79 40 59 52 99 74 45 101 94 43 35 77 81 31 44 61 64 38 15 29 28 -9 -79 -91 -38 -6 62 115 49 73 73 75 65 41 -168 -984 -948 75 226 81 72 34 79 43 36 47 -6 -2 -3 -15 -54 -106 -112 -115 -152 -173 -195 -234 -233 -202 -114 -67 -20 60 68 86 95 48 78 108 85 70 68 64 74 48 1 69 79 32 50 49 104 63 43 57 38 115 71 55 72 64 56 69 129 63 15 46 -3 14 1 -94 -35 20 121 100 66 112 63 87 100 101 -182 -1095 -899 87 209 87 50 39 67 42 42 -9 16 42 -8 -49 -77 -74 -76 -150 -212 -170 -201 -265 -223 -195 -119 -44 -10 70 106 98 143 101 97 116 94 125 91 50 98 62 69 83 49 58 57 85 120 92 73 84 88 97 59 44 73 92 51 57 99 52 36 58 28 26 15 18 -42 -80 -7 43 75 95 102 83 96 97 51 57 -572 -1248 -546 155 133 106 60 62 45 72 55 22 6 -12 3 -17 -91 -69 -123 -132 -171 -219 -215 -198 -178 -192 -118 -17 20 84 104 96 105 145 91 78 89 74 88 72 72 84 44 61 91 54 95 70 66 145 48 50 94 95 119 79 83 63 43 97 114 62 57 56 17 -6 -34 -12 37 68 90 124 56 111 120 108 69 71 -662 -1245 -342 160 150 128 66 82 34 67 28 50 10 -26 7 -55 -44 -83 -133 -143 -191 -199 -203 -232 -204 -150 -114 -10 48 92 118 112 149 93 77 154 104 76 114 57 75 82 80 88 55 80 106 99 62 68 88 63 97 91 75 82 88 41 61 83 70 64 31 24 -18 -41 -25 -23 68 86 93 117 81 87 88 112 28 -830 -1215 -140 227 112 93 61 108 59 49 -4 36 66 -51 -17 -10 -56 -105 -108 -120 -177 -227 -209 -206 -188 -190 -114 5 80 80 116 135 103 142 83 102 76 59 120 78 63 78 66 57 64 91 77 60 76 77 63 107 98 84 104 74 28 84 123 81 39 19 38 -10 -76 -6 67 69 109 103 105 91 76 111 114 -126 -975 -1080 26 249 39 88 61 74 19 78 51 -4 12 -11 -23 -67 -74 -99 -120 -165 -196 -223 -252 -226 -217 -118 -47 -31 73 114 77 117 113 114 83 89 154 107 82 69 59 92 76 68 67 73 101 102 93 82 98 77 81 82 83 83 40 55 80 73 38 9 0 -43 -52 -50 -37 86 91 74 82 84 54 41 120 -57 -964 -1199 -110 204 64 102 27 68 38 18 26 26 0 -42 -11 -17 -88 -117 -122 -197 -239 -211 -247 -242 -231 -158 -77 -34 39 69 69 87 127 76 76 82 58 54 38 54 13 39 59 -19 16 64 17 27 65 38 26 47 62 36 17 36 33 10 29 -4 -47 -65 -103 -68 2 65 60 51 44 61 23 74 50 -117 -957 -1115 -70 144 41 59 16 35 -6 22 -9 1 -36 -101 -69 -104 -123 -150 -177 -191 -255 -261 -252 -293 -248 -206 -138 -13 -19 75 77 40 66 59 40 24 45 54 46 -2 11 56 31 43 23 2 38 20 49 84 31 38 59 43 55 37 28 80 57 37 7 -39 -50 -68 -10 12 27 98 66 52 108 58 98 68 -138 -1001 -1202 17 221 -2 68 57 32 29 37 10 28 -1 -10 -19 -48 -79 -129 -144 -151 -199 -235 -226 -236 -232 -143 -44 -2 8 81 164 109 86 93 66 123 118 70 63 63 61 36 54 92 80 50 11 65 69 25 101 94 80 35 24 66 61 72 49 55 97 46 8 -9 -20 -41 -43 -5 20 65 69 55 75 139 58 90 88 -83 -947 -1206 -43 205 22 82 49 107 50 41 55 19 20 -37 -82 -29 -75 -75 -123 -207 -203 -238 -242 -213 -232 -168 -69 -18 47 87 100 70 82 114 95 96 78 51 68 48 55 85 59 62 60 57 115 66 61 95 88 75 66 79 84 109 94 68 89 95 67 42 54 86 52 51 23 -9 1 -88 -23 53 21 84 77 71 73 68 104 88 -104 -982 -1133 -7 199 54 75 30 95 57 31 20 26 -18 -8 -21 -64 -58 -93 -136 -139 -157 -227 -277 -238 -200 -147 -50 -52 77 111 80 149 107 124 110 110 86 67 112 60 87 69 63 91 31 71 81 87 91 56 89 67 32 66 72 122 74 60 92 35 58 73 75 41 35 30 -18 -12 -29 -50 37 129 119 55 77 96 82 154 101 -141 -977 -1035 10 219 114 123 48 44 56 44 67 44 -42 11 -2 -76 -66 -101 -116 -166 -216 -223 -230 -217 -207 -161 -57 -6 33 96 96 112 94 136 116 41 76 113 105 57 30 62 62 71 72 103 68 57 69 61 90 115 123 86 79 85 65 74 113 71 47 79 52 40 37 -30 -55 -10 25 54 87 69 90 109 34 84 97 11 -678 -1331 -384 251 36 52 57 87 30 63 36 28 5 -23 -16 -49 -29 -68 -110 -165 -208 -211 -210 -211 -220 -199 -86 19 40 67 110 139 95 94 148 118 85 104 81 54 93 80 96 78 42 87 77 64 62 82 83 90 76 76 74 82 81 33 81 93 57 84 61 68 51 57 47 0 -6 -22 -2 6 82 65 36 98 132 106 117 106 27 -675 -1269 -319 257 101 77 55 82 20 53 39 33 27 14 -22 -55 -91 -88 -129 -161 -187 -207 -242 -236 -235 -222 -133 -41 35 65 117 95 98 135 95 52 83 96 49 98 76 29 89 63 56 71 100 59 76 72 50 93 58 110 72 68 96 50 80 92 50 38 77 68 20 -15 3 4 -37 -65 34 60 37 106 66 84 109 84 32 -242 -1060 -1008 -54 214 94 33 28 88 50 46 14 26 20 -2 -11 -45 -96 -91 -116 -147 -184 -226 -216 -238 -177 -129 -93 26 58 96 133 108 114 135 122 118 80 69 67 75 64 68 62 64 78 64 58 70 111 77 48 91 65 89 83 67 93 26 59 109 31 27 24 -44 -63 -15 23 91 102 84 76 107 108 108 77 -10 -776 -1223 -276 184 59 127 29 57 52 31 55 27 -30 11 -32 -77 -59 -91 -134 -186 -219 -244 -250 -258 -259 -194 -123 -39 46 49 72 80 89 72 75 99 31 36 73 78 62 9 46 65 19 4 88 70 61 50 89 36 2 109 57 46 21 50 53 56 63 20 8 -6 -41 -103 -49 27 -6 58 67 30 45 38 91 46 -19 -730 -1352 -352 172 66 90 17 53 3 5 5 -2 10 -20 -92 -88 -48 -124 -150 -160 -229 -247 -237 -280 -258 -236 -146 -74 17 66 49 108 99 55 93 47 47 94 51 46 35 34 42 43 -2 17 52 16 47 61 32 47 36 72 47 17 20 33 32 -3 42 34 7 -26 -37 -75 -115 -34 45 43 72 54 35 100 61 61 66 -366 -1140 -815 100 198 34 32 29 49 73 32 -2 -1 -40 -53 -10 -32 -119 -144 -158 -197 -254 -273 -261 -243 -239 -151 -67 0 43 48 107 99 117 88 83 85 53 36 118 103 31 74 74 77 38 45 73 87 114 72 53 71 81 103 76 96 113 99 65 30 48 32 0 -48 -16 47 88 104 125 105 95 58 104 79 -61 -817 -1231 -204 198 72 123 90 96 37 34 54 44 22 29 -29 -64 -18 -84 -129 -101 -178 -230 -232 -207 -178 -127 -42 13 62 104 111 154 134 115 123 114 97 113 97 74 92 87 83 68 62 102 73 65 91 90 95 102 76 78 69 76 90 81 30 2 35 -77 -30 17 48 98 73 123 127 89 65 94 114 -292 -1157 -827 111 151 89 105 80 98 74 6 47 40 17 1 -29 -60 -48 -112 -151 -149 -202 -217 -197 -262 -211 
#avL[uV]
6165 5759 4895 4562 3668 3288 2433 2116 1185 834 -14 -79 -45 -32 -72 -33 -38 -43 -50 -47 -6 -43 -37 -11 -34 -53 -36 -72 -17 13 -63 -6 3 -26 -38 -42 -80 -89 -50 -9 48 7 -29 29 -6 -21 -2 -20 -23 -87 40 235 112 9 41 -20 12 15 -7 4 -13 -33 -25 19 29 -9 -8 35 24 6 15 20 20 14 73 52 -3 6 -25 -11 -43 -55 -28 -5 -2 8 -10 -21 5 -26 -26 -28 -7 6 -11 3 -28 -2 7 -16 -56 18 28 -2 1 -5 -27 -52 -35 -26 -56 45 82 1 0 -8 -10 8 -19 26 -22 -54 112 161 23 42 115 44 6 20 6 30 26 14 6 -5 82 68 15 72 54 59 74 33 71 69 56 55 2 -5 -26 -11 -45 -65 -19 14 -46 -61 -29 -16 -49 -28 -8 -33 -35 -47 -12 -6 -35 9 -31 -41 -39 -22 -25 -44 -9 0 -22 -42 -62 -27 -49 -19 59 -6 -17 -22 -4 47 -17 -1 -45 -90 23 195 147 15 36 16 -6 -2 22 -13 16 40 2 -8 3 31 -5 -6 8 70 49 -21 24 46 33 21 -8 -34 -35 -31 -25 -36 -7 -48 -57 -21 -15 -44 -30 -30 -10 -2 -62 -29 -5 -6 7 -11 0 1 -40 -13 25 -7 -9 -19 -16 24 -32 -14 -18 -78 -31 -16 -16 33 -3 -4 9 1 7 -11 -5 -63 -107 67 188 127 8 33 58 -54 -28 28 -10 22 10 -3 -2 -8 20 35 -1 4 39 28 27 64 44 56 18 -23 -3 -2 -22 -42 2 12 -20 -32 -63 -17 -4 -41 -19 3 3 -26 -28 -65 -19 -3 -61 0 36 -43 -49 -44 -60 -12 9 -43 -38 -8 -20 -8 -56 -34 -16 -53 -25 -25 -4 44 4 -34 -25 27 21 -16 11 -15 -60 57 220 113 26 100 14 -27 55 7 -29 -2 11 23 21 23 13 2 1 30 22 38 24 33 42 -4 6 4 -6 -52 -42 -8 -51 -38 -7 -30 -39 -85 -20 15 -20 -14 -50 -15 13 0 -43 -5 -12 -49 -35 0 10 -12 -15 25 6 -8 0 1 -22 -25 10 20 -22 -51 -41 -23 -9 32 9 -35 16 21 -13 -10 14 -13 -145 0 193 77 -35 42 53 -12 -27 -24 17 29 9 -1 0 -23 29 13 12 55 47 65 67 55 48 70 31 -23 -7 -34 -43 -41 -31 0 -49 -66 -26 -74 -12 -25 -57 -13 -60 -28 -33 -28 -26 -27 -63 -33 -27 -43 -67 -42 -11 -38 -49 -16 -20 -33 -47 -47 -18 -42 -90 -50 -40 -6 7 25 -28 -41 11 -20 -20 -8 -5 -30 -14 119 114 -15 44 55 -22 33 18 2 25 -26 22 55 -11 2 6 45 39 10 28 31 27 44 27 34 4 -11 -5 -51 -64 -39 -20 -7 -52 -29 -50 -16 -6 -60 -34 -8 0 -14 -39 11 -1 -38 -27 8 -10 4 25 -36 -4 24 10 -5 29 22 -38 11 26 -16 -24 -64 -58 51 64 45 -35 -12 3 0 29 20 -2 -74 9 183 53 17 25 -13 13 27 13 14 -24 32 26 -23 -8 37 29 11 10 61 52 -15 20 73 45 21 11 1 -8 -4 -6 -4 -34 7 -8 -6 10 -42 -28 2 -11 4 1 3 3 9 41 -12 -49 -6 -8 -2 -9 -30 9 8 -26 -12 10 15 -34 4 16 -8 13 -5 -46 -80 -31 58 71 17 10 23 -7 18 -2 13 1 -49 83 206 216 105 32 41 35 36 45 17 0 56 45 10 20 29 68 43 23 47 34 73 66 34 43 52 1 -22 -3 -36 -54 3 -4 -32 3 -9 -30 -15 -23 2 -7 -14 7 -30 -9 19 -35 26 19 -54 20 22 10 -7 2 22 0 32 51 -9 -6 27 22 -17 -48 -11 -5 40 45 -4 11 -22 38 1 -21 41 15 -122 81 191 8 88 75 33 11 10 15 25 11 -32 46 54 -5 50 27 15 63 28 61 68 43 90 76 28 33 -18 -28 -19 -35 -20 -40 14 15 -53 -17 -6 -41 5 -6 -19 -30 -22 26 -6 -36 -17 8 -17 -5 8 -17 -4 -29 -22 -25 6 -3 -27 4 -16 -56 -66 -62 -31 30 54 7 21 1 -15 37 -5 21 -65 -31 128 93 63 117 49 23 22 -11 38 21 43 32 -31 102 38 0 11 78 41 2 49 54 36 14 9 68 49 -22 -16 -21 -46 -36 -30 -41 -11 -12 10 -26 -50 -12 -4 -18 -15 13 -7 -7 -17 -12 10 -8 9 -25 -16 0 -19 22 51 -1 -20 -2 26 -30 -56 -12 11 54 7 -2 13 8 -2 32 6 15 -34 43 146 62 49 81 56 1 -15 0 23 -45 0 53 -17 2 -9 16 33 17 -13 38 46 29 62 25 20 -3 -17 16 -29 -41 -3 -3 0 -16 22 28 -48 -18 -5 0 41 -7 21 -3 22 18 -24 -14 -7 24 -5 17 9 0 -4 -6 33 0 2 -3 11 -13 -53 -21 -6 62 91 -13 -20 23 25 40 21 68 -49 -57 187 113 19 112 105 26 25 23 42 52 29 52 58 81 29 14 64 59 62 100 104 68 95 69 67 34 -1 21 1 -7 -2 -9 -35 -18 -5 -41 -40 -13 -19 -41 0 -37 -29 29 -1 -41 1 4 -42 -17 7 -16 -34 -9 -21 -14 3 2 -32 -75 -19 -33 -13 40 17 -22 15 12 5 -2 16 -7 -68 -61 111 63 -39 66 75 -1 -10 4 12 -24 14 -3 7 19 -23 5 22 9 5 34 60 29 10 39 37 10 -28 -65 -17 -57 -66 -38 -54 -53 -47 -25 -57 -60 -60 -20 -5 -33 -33 -38 -9 20 -25 -11 -23 -42 1 -8 -29 -3 -8 -9 12 -46 -18 -36 -69 -8 -31 -3 24 43 6 -22 8 -17 1 1 -1 -31 16 156 97 -20 73 108 33 0 13 5 10 12 -4 28 24 4 29 25 20 39 51 27 54 54 49 59 27 5 -26 11 11 -69 -14 11 -2 9 -44 -51 19 -22 -1 18 -8 -9 -21 -36 -1 28 -30 -5 4 -26 -45 -37 13 4 5 7 22 3 -8 -43 0 30 -63 -8 -11 -30 51 24 -17 18 65 32 0 43 40 -25 18 150 116 77 130 85 11 27 -2 29 31 -1 33 13 -6 48 21 15 35 14 46 9 27 46 2 40 15 -15 -18 -20 -38 -18 10 -19 -26 -18 -29 -28 5 -8 -18 12 3 -22 -2 6 0 -29 31 31 -11 1 8 6 8 5 -24 -13 15 -10 -24 7 18 3 -4 19 -27 -47 -32 -70 21 16 21 17 -25 3 2 0 -26 7 -59 -58 165 95 -12 100 45 25 8 -35 -1 18 7 0 12 -18 0 21 11 23 34 34 37 27 70 41 27 6 -23 45 -65 -79 5 -57 -26 -38 -47 -10 -32 -35 -47 17 -46 -56 -23 -52 -7 -44 -39 -72 -46 -28 -82 -21 -1 -45 -19 -59 -46 -7 -34 -15 -8 -40 -38 -7 -34 -69 -15 -62 -56 53 38 -44 -36 22 4 7 -13 -47 -67 -82 123 118 -61 34 23 -36 10 13 -7 -9 -25 -13 34 -12 -34 16 9 3 11 30 53 29 22 35 47 0 -45 -9 -31 -80 -55 -43 -35 -78 -73 -24 -51 -79 -67 -51 1 -25 -50 -9 -54 -60 3 -22 -26 -26 -52 -78 -14 -2 -31 -42 -35 -32 -75 -42 -8 -25 -14 -79 -106 -40 -62 -17 -8 -47 -48 -5 -38 -28 7 -37 -79 -64 63 107 102 48 33 18 -28 -44 -17 -21 -21 1 -5 -8 -9 -1 -13 1 10 9 41 44 6 -3 6 18 4 -50 -36 -10 -14 -70 -32 -24 -62 -18 -30 -30 -36 -25 -27 -42 -50 -69 2 -29 -63 -22 -20 -45 -27 -30 -32 -49 -20 -15 -29 -21 -9 11 -29 -81 -4 31 5 -66 -78 -28 -61 -52 27 49 -9 41 51 -18 -6 -37 -9 -42 -50 110 122 89 90 7 3 -2 1 29 22 -10 -9 -18 -19 -37 11 43 0 3 -5 15 9 -4 18 17 30 9 -25 -41 -33 -56 1 -39 -57 -28 -6 -40 -64 11 -42 -43 14 -35 -20 10 -24 -46 1 -16 7 -7 -28 -11 -56 -18 -16 -10 17 -12 -43 -15 -8 -37 -3 -21 -31 -44 -88 -12 30 -17 -12 11 -6 -23 -3 -39 -11 -33 2 161 32 -23 18 44 45 10 -4 -2 -8 0 -1 31 12 13 32 69 55 28 75 50 60 68 67 29 14 27 -13 -37 -30 -34 -19 -16 -49 -61 -60 -16 0 -38 -14 -28 -37 -24 -32 -21 -29 -25 -5 -49 -30 -8 -20 16 -63 -18 8 -50 36 -8 -55 -4 -45 -55 4 0 8 22 13 6 7 15 7 -32 -2 -28 -45 108 125 36 20 78 9 15 11 -25 32 -23 -33 31 -10 21 38 1 -11 5 25 22 56 40 56 42 16 18 -43 -66 -18 -33 -25 -61 -34 -12 -77 -36 -17 -35 -41 -40 3 -23 -41 7 32 -38 -42 -24 -2 -48 16 21 -43 -28 -18 1 -22 -20 -44 -9 -11 -55 -82 -83 -9 1 -27 -12 -16 -19 -9 7 -41 -51 -66 -70 86 96 89 73 11 12 -40 -52 -20 9 9 -27 -55 -11 47 -21 -19 13 10 5 22 22 0 14 16 6 -11 -40 -60 -12 -19 -102 -25 -12 -68 -27 -36 -75 -32 -40 -49 -19 -28 -74 -23 -25 -72 -28 -34 -44 -11 -36 -29 -76 -60 -4 6 -11 -27 6 -27 -24 -55 -73 -50 -67 44 21 -1 7 -26 18 28 -26 13 -27 -69 57 162 133 43 -22 50 23 17 -19 -30 29 40 23 36 22 -16 -11 20 41 39 30 43 60 31 8 50 -5 8 -41 -50 6 -32 -8 -13 -16 -22 -12 -5 12 -69 -25 27 -22 6 -14 44 13 22 -7 -41 7 15 15 9 8 -29 7 0 -16 10 9 -40 -31 -29 -22 14 25 7 -3 -5 -20 28 20 -20 -38 -52 48 41 -23 72 102 27 -6 15 40 50 5 4 37 6 51 68 6 79 74 57 115 122 105 84 67 67 28 -1 3 -10 -23 -24 -21 -21 -25 -31 -15 -3 -11 -19 -12 -36 -33 32 1 -21 -23 -22 -40 -9 -19 -48 -15 2 -18 -6 -35 -51 -27 -35 -67 -18 36 26 9 -5 18 12 -14 -1 7 5 -89 26 249 187 21 78 44 -8 18 -7 29 66 16 -2 -1 34 17 18 28 44 62 56 62 56 0 66 43 
#avF[uV]
-8185 -7777 -6476 -6102 -4797 -4422 -3232 -2884 -1633 -1286 14 -32 -28 -26 -25 -35 -2 -2 -16 1 0 -2 2 5 24 -47 -35 0 -36 -34 -13 -50 -55 -65 -39 0 66 79 95 76 9 -37 -55 -94 -73 -74 -49 -60 -67 5 391 1011 522 -163 -162 -81 -39 -55 -4 -58 -40 -7 10 36 15 57 76 41 105 124 138 178 179 184 171 131 99 35 19 -18 -65 -59 -89 -94 -56 -58 -61 -47 -74 -52 -29 -20 -44 -77 -53 -62 -57 -66 -72 -79 -65 -75 -74 -70 -72 -97 -64 5 19 68 117 7 -48 -70 -127 -83 -75 -100 -57 -109 -34 40 701 1108 199 -239 -184 -147 -50 -100 -54 -84 -70 -36 -43 -38 -14 -40 10 50 49 70 90 117 147 122 93 97 44 -2 -14 -60 -62 -65 -74 -62 -68 -52 -38 -45 -4 -24 -33 -15 -14 -25 -23 -16 -30 -38 -29 -47 -28 -53 -71 -39 -50 -53 -35 2 73 29 105 70 -27 -35 -67 -88 -80 -107 -82 -75 -77 1 419 912 452 -133 -159 -113 -77 -69 -53 -74 -42 -53 -10 7 -1 27 48 63 86 108 141 168 174 165 166 154 89 54 12 -22 -52 -65 -56 -76 -25 -44 -72 -41 -32 -24 -28 -22 -44 -32 -51 -59 -45 -85 -91 -69 -51 -62 -93 -69 -59 -74 -60 -72 -57 -78 -25 53 50 80 54 -39 -44 -85 -104 -95 -88 -79 -66 -64 3 353 1012 583 -146 -183 -79 -29 -65 -68 -11 -19 -32 -31 -6 14 20 52 98 83 108 140 172 158 170 157 130 73 41 5 -39 -73 -117 -83 -38 -106 -65 -46 -90 -40 -50 -36 -39 -69 -49 -32 -50 -46 -32 -74 -52 -51 -41 -16 -29 -31 -56 -4 -27 -51 -17 -23 -11 -27 23 42 62 110 44 -22 -53 -64 -59 -88 -77 -96 -89 -47 -1 475 1035 322 -215 -153 -102 -54 -94 -84 -59 -41 -21 -30 -14 10 29 72 93 57 128 144 162 202 226 204 186 132 51 24 -49 -55 -43 -52 -37 -55 -48 -27 -37 -36 -18 -32 -14 -34 -37 -49 -35 -31 -53 -55 -39 -72 -62 -69 -85 -63 -61 -76 -46 -78 -83 -46 -65 -59 -6 18 44 65 36 -47 -59 -80 -83 -95 -100 -76 -76 -64 70 477 998 516 -38 -145 -155 -41 -41 -28 -60 -40 -21 -31 0 49 40 48 58 78 102 120 138 144 178 163 119 121 8 -25 -24 -67 -64 -73 -69 -40 -28 -70 -57 -27 -1 -23 -17 -47 -46 -12 -32 -25 -36 -41 -18 -57 -27 -1 -23 -38 -32 -15 -24 -27 -17 9 3 13 62 59 119 98 30 -19 -33 -74 -61 -52 -53 -66 -60 -11 183 865 834 -60 -271 -136 -49 -67 -98 -46 -62 -20 -16 -52 14 13 48 61 73 105 124 141 168 189 206 168 109 78 26 -8 -3 -46 -74 -41 -25 -78 -35 -53 -61 -4 -39 -40 0 -55 -40 -43 -49 -10 -76 -71 -33 -61 -63 -78 -66 -79 -83 -59 -85 -92 -91 -74 -42 -29 28 49 56 43 -29 -65 -85 -87 -70 -113 -92 -108 -98 -27 173 911 845 -105 -234 -73 -64 -67 -80 -56 -18 -22 -42 -18 16 11 47 63 66 88 159 185 181 191 178 173 108 43 18 -65 -100 -93 -108 -109 -89 -109 -105 -82 -63 -52 -86 -67 -70 -87 -52 -68 -99 -73 -71 -86 -64 -81 -79 -66 -69 -53 -46 -80 -61 -73 -65 -56 -52 -49 -41 -20 31 61 74 21 -63 -61 -85 -118 -94 -102 -93 -111 -53 -7 488 1042 329 -260 -165 -148 -95 -98 -90 -90 -55 -79 -51 2 -23 -12 23 26 100 84 137 145 149 164 135 140 116 40 -16 -47 -49 -99 -100 -112 -95 -69 -58 -58 -65 -74 -64 -70 -51 -31 -81 -73 -60 -96 -85 -90 -69 -72 -105 -88 -121 -101 -83 -95 -95 -88 -107 -90 -79 -38 31 18 39 -28 -83 -64 -102 -102 -95 -112 -98 -149 -85 50 581 1053 334 -248 -225 -161 -78 -93 -50 -93 -39 -17 -57 -27 -2 5 17 68 69 114 129 130 160 141 128 122 81 29 -19 -72 -82 -92 -109 -108 -93 -101 -87 -70 -73 -62 -68 -63 -49 -65 -82 -74 -69 -81 -71 -51 -83 -71 -80 -86 -45 -60 -62 -47 -58 -55 -74 -47 24 41 81 72 -4 -31 -75 -107 -95 -101 -119 -81 -109 -47 2 702 1121 77 -345 -161 -117 -83 -97 -98 -71 -38 -69 -34 -50 -20 9 44 26 67 118 128 172 172 192 179 121 64 16 -63 -59 -70 -99 -72 -100 -71 -89 -87 -33 -69 -65 -58 -60 -51 -71 -56 -83 -60 -48 -87 -68 -72 -81 -82 -85 -84 -96 -79 -83 -102 -79 -66 10 18 23 65 -47 -74 -66 -123 -111 -102 -123 -82 -126 -79 82 829 1018 -76 -331 -96 -90 -45 -75 -43 -33 -50 -49 5 8 33 51 41 82 134 126 149 194 189 200 196 121 64 15 -43 -72 -74 -113 -113 -97 -106 -117 -105 -89 -76 -70 -101 -84 -97 -64 -89 -92 -76 -87 -85 -107 -92 -94 -90 -81 -78 -76 -74 -54 -83 -70 -49 4 52 64 58 -12 -54 -73 -70 -97 -108 -124 -76 -110 -70 115 776 1085 91 -317 -169 -129 -53 -91 -81 -71 -56 -79 -58 -39 -17 3 23 57 59 96 134 142 152 173 163 124 78 12 -41 -62 -67 -77 -92 -58 -71 -41 -18 -41 -18 -13 -13 -2 -30 -10 -15 -23 -18 -32 -23 -21 -34 -30 -28 -27 4 -21 -36 -13 3 80 66 99 117 28 -19 -42 -75 -64 -49 -59 -40 -67 18 179 846 1051 110 -211 -116 -58 -5 -40 -5 1 -5 2 28 81 93 98 100 141 172 157 194 231 241 253 210 196 166 78 36 -18 -11 -2 -12 -5 6 1 11 5 14 22 -6 -23 1 -4 -14 -23 -13 -9 -25 -41 -32 -29 -29 -40 -46 -28 -41 -34 -39 0 61 48 81 72 -13 -55 -33 -75 -75 -34 -109 -60 -96 -36 122 844 1105 3 -295 -105 -101 -56 -46 -35 -47 -23 -24 -26 -13 15 18 53 108 104 100 171 181 172 187 173 116 38 28 -20 -93 -94 -94 -97 -90 -76 -78 -66 -89 -41 -61 -80 -28 -45 -71 -43 -49 -39 -34 -63 -30 -75 -48 -43 -48 -29 -71 -69 -94 -53 -47 -54 -47 -39 72 29 53 74 -45 -45 -47 -87 -121 -107 -139 -102 -131 -63 64 796 1090 -34 -335 -108 -94 -76 -104 -79 -72 -54 -52 -34 43 33 7 60 40 109 160 193 210 195 210 192 153 85 37 -26 -48 -81 -81 -62 -87 -77 -66 -50 -56 -59 -30 -68 -88 -36 -59 -67 -57 -85 -97 -93 -84 -90 -83 -73 -87 -90 -84 -81 -84 -79 -70 -75 -60 -58 -81 -72 -23 23 41 68 66 7 -74 -39 -59 -81 -74 -72 -42 -112 -28 162 817 1038 20 -299 -100 -100 -38 -59 -55 -49 -28 -26 6 26 21 42 47 69 101 104 120 199 206 196 173 140 73 7 -12 -32 -85 -92 -81 -85 -62 -99 -53 -32 -65 -77 -40 -13 -39 -38 -24 -27 -42 -14 -44 -28 -7 -46 -30 -21 -53 -63 -28 -53 -57 -19 -50 -33 -36 -33 -1 39 34 75 86 -2 -76 -85 -83 -78 -82 -103 -69 -106 -33 223 854 917 51 -253 -137 -86 -58 -58 -49 -34 -42 -30 8 1 37 59 56 97 105 136 162 194 207 181 160 160 103 16 -1 -16 -40 -69 -59 -58 -42 -16 -24 -34 -37 -6 -32 -36 -11 -62 -17 -42 -72 -34 -42 -35 -37 -37 -108 -84 -47 -43 -30 -42 -38 -29 -39 -53 -37 39 69 71 118 27 -17 -7 -38 -63 -51 -80 -42 -47 -17 52 615 1223 281 -299 -70 -70 -28 -42 -12 -42 -15 -29 0 32 25 51 42 67 99 156 166 166 203 215 213 180 81 31 -3 -56 -96 -69 -62 -69 -85 -100 -55 -73 -45 -29 -65 -38 -46 -8 -44 -57 -13 -41 -41 -37 -55 -59 -43 -27 -54 -66 -52 -11 -71 -104 -27 -2 -56 -100 -57 8 31 27 67 74 -25 -56 -72 -106 -87 -79 -126 -69 -108 -63 22 564 1147 229 -348 -109 -81 -53 -83 -50 -75 -29 -23 -9 4 59 44 47 89 126 166 172 197 247 218 218 191 123 67 5 -32 -61 -97 -59 -78 -67 -45 -43 -31 -61 -55 -33 -44 -54 -43 -66 -47 -53 -61 -59 -79 -42 -64 -47 -53 -54 -52 -85 -68 -68 -49 -35 -30 -39 -65 0 47 40 83 49 34 -17 -48 -49 -99 -43 -81 -69 -72 1 240 899 975 77 -232 -138 -78 -39 -83 -48 -37 -14 -24 -52 -9 -2 13 27 36 88 72 133 165 148 171 148 115 66 -12 -20 -66 -99 -89 -98 -85 -60 -58 -64 -69 -29 -60 -36 -31 -38 -32 -56 -34 -32 -64 -62 -46 -40 -70 -81 -26 -65 -76 -42 -63 -50 -54 -26 18 31 39 63 7 -46 -104 -109 -92 -91 -114 -76 -106 -48 55 668 1097 240 -205 -138 -136 -45 -68 -27 -64 -31 6 -1 0 10 38 57 102 129 161 197 187 209 201 216 177 105 83 19 -30 -39 -54 -27 -37 -63 -22 5 -18 -37 -37 -22 -12 -23 -23 -27 -37 -49 -27 -37 -47 -41 -52 -23 -65 -29 -28 -22 -27 -32 -11 -54 -9 47 88 124 113 47 0 18 -42 -48 -20 -52 3 -39 20 89 643 1255 263 -246 -78 -102 23 0 17 -14 -14 29 44 32 44 110 67 111 140 154 207 224 237 265 242 229 158 114 42 -53 -29 -5 -74 -42 -25 -20 -11 -18 -19 -6 14 -14 -14 30 25 7 19 11 -12 -17 -21 -10 -6 4 12 -12 -27 -21 -4 -3 -15 -10 48 99 88 143 71 13 -43 -50 -45 -73 -63 -73 -75 -34 3 308 977 681 -143 -175 -84 -55 -46 -30 -43 -62 -38 -22 4 31 27 43 99 102 119 167 211 212 229 234 188 156 59 42 7 -54 -74 -91 -103 -72 -60 -72 -47 -48 -48 -77 -59 -52 -81 -63 -82 -58 -96 -79 -73 -80 -68 -87 -91 -111 -47 -104 -112 -82 -76 -39 -7 0 30 71 1 -73 -96 -101 -119 -84 -124 -78 -83 -40 113 769 1189 227 -270 -175 -150 -83 -112 -78 -84 -59 -49 -60 -35 -22 -4 12 5 54 43 62 108 127 122 110 59 14 -11 -65 -94 -87 -130 -112 -93 -97 -82 -82 -109 -85 -54 -80 -51 -50 -101 -64 -81 -50 -43 -50 -81 -75 -53 -60 -81 -50 -70 -55 -30 -3 32 32 96 -5 -44 -57 -93 -91 -135 -113 -88 -73 -99 -24 266 908 639 -132 -229 -134 -97 -99 -91 -103 -73 -64 -38 -16 -36 11 42 20 68 88 93 140 160 197 196 168 
