ADC Sampling rate (Hz):
100
Fragment duration (sec):
21
Number of samples exported by each lead:
2099

#I[uV]
-3057 -3107 -2474 -2496 -1843 -1458 -1314 -942 -803 -421 -231 -236 -289 -224 -172 -240 -188 -156 -193 -127 -180 -163 -116 -121 -136 -143 -116 -184 -204 -161 -166 -149 -137 -131 -158 -191 -249 -202 -179 -153 -191 -236 -21 534 467 -101 -175 -101 -90 -165 -149 -140 -69 -121 -138 -124 -87 -69 -66 -62 -39 -40 -10 -32 -21 1 -52 -50 -43 -75 -107 -86 -74 -121 -94 -69 -129 -80 -62 -117 -75 -94 -135 -98 -114 -133 -127 -110 -130 -68 -68 -72 -120 -112 -90 -121 -77 -104 -152 -96 -154 -111 -60 -149 -65 -65 -60 -41 -47 -31 -60 -52 -1 -94 -85 -16 -44 -60 -12 -2 -14 21 -51 -97 -88 -89 -83 -159 -169 -120 250 556 31 -281 -152 -201 -172 -190 -130 -187 -181 -184 -166 -157 -140 -168 -109 -63 -85 -57 -45 -28 -19 -78 -116 -95 -171 -177 -156 -171 -137 -74 -113 -156 -129 -152 -139 -130 -110 -101 -150 -152 -113 -78 -100 -67 -94 -113 -117 -77 -129 -87 -122 -140 -160 -113 -73 -138 -94 -76 -88 -73 -140 -96 -126 -164 -152 -89 -98 -122 -80 -146 -88 -125 -93 -143 -103 -77 -100 -70 -16 -72 -117 -69 -45 -127 -74 -153 -150 113 322 157 -451 -331 -376 -439 -368 -410 -300 -390 -289 -349 -330 -374 -243 -272 -305 -301 -259 -236 -162 -224 -190 -240 -266 -246 -301 -352 -354 -415 -364 -367 -321 -346 -253 -352 -280 -375 -280 -383 -294 -294 -331 -352 -264 -349 -278 -298 -288 -334 -203 -275 -248 -241 -283 -379 -253 -283 -274 -308 -219 -259 -260 -232 -186 -262 -227 -199 -230 -238 -260 -322 -208 -224 -207 -250 -248 -281 -238 -276 -266 -333 -293 -195 216 231 -371 -380 -366 -344 -319 -285 -273 -332 -238 -324 -197 -255 -196 -219 -199 -169 -130 -173 -71 -103 -99 -163 -117 -164 -163 -206 -201 -259 -251 -218 -280 -284 -270 -260 -266 -249 -237 -248 -222 -247 -212 -271 -217 -282 -278 -243 -315 -311 -256 -184 -206 -219 -252 -228 -161 -200 -240 -241 -282 -205 -277 -292 -234 -254 -84 -114 -143 -149 -177 -107 -141 -169 -228 -187 184 621 235 -89 -138 -118 -114 -142 -184 -159 -158 -118 -167 -168 -132 -104 -113 -87 -66 -35 3 -12 11 -42 -105 -117 -190 -154 -221 -151 -248 -179 -185 -111 -149 -172 -208 -138 -114 -141 -171 -141 -161 -210 -162 -121 -128 -129 -112 -97 -130 -111 -149 -129 -171 -129 -153 -107 -141 -113 -148 -77 -54 -111 -64 -89 -113 -79 -110 -78 -168 -142 -146 -142 -184 -127 226 285 -106 -220 -187 -223 -206 -190 -246 -184 -152 -127 -170 -79 -142 -110 -23 -21 -20 2 7 63 -34 -48 -61 -74 -119 -114 -206 -112 -166 -109 -188 -120 -134 -129 -165 -110 -118 -82 -129 -50 -65 -116 -157 -76 -145 -29 -76 -88 -87 -76 -116 -95 -104 -116 -185 -95 -196 -107 -121 -113 -42 -55 -2 -48 -69 -71 -147 -113 -97 -114 -71 -137 172 788 144 -105 37 -100 -23 -104 -102 -104 -115 -60 -67 -21 -31 3 56 25 22 69 59 57 42 33 32 3 -23 -74 -60 -83 -114 -103 -79 -107 -122 -95 -140 -111 -69 -107 -73 -110 -173 -131 -150 -144 -169 -133 -149 -116 -104 -81 -100 -95 -93 -119 -149 -149 -200 -135 -150 -151 -72 -105 -72 -82 -34 -82 -105 -134 -202 -177 -139 -172 -123 -138 87 416 39 -168 -154 -230 -252 -261 -267 -231 -241 -194 -135 -156 -106 -100 -46 -46 -27 -1 -37 -22 -32 -58 -62 -109 -99 -125 -108 -128 -119 -149 -128 -150 -142 -149 -137 -133 -110 -105 -90 -83 -62 -76 -77 -61 -70 -82 -101 -107 -98 -108 -106 -109 -114 -121 -125 -110 -129 -116 -121 -122 -105 -83 -92 -64 -58 -61 -61 -71 -67 -71 -1 -79 69 150 63 -228 -404 -293 -372 -391 -401 -425 -414 -411 -378 -372 -329 -337 -285 -295 -245 -236 -190 -207 -126 -193 -147 -230 -208 -269 -345 -283 -354 -316 -348 -344 -324 -351 -339 -367 -306 -352 -332 -332 -329 -323 -298 -315 -295 -302 -255 -290 -266 -265 -245 -275 -230 -272 -248 -268 -259 -256 -250 -267 -253 -250 -256 -238 -224 -231 -180 -201 -152 -189 -173 -200 -213 -215 -212 -214 -179 -171 -99 -115 -26 -100 -167 -179 -302 -264 -231 -291 -259 -270 -226 -235 -195 -209 -169 -161 -137 -129 -121 -132 -122 -133 -126 -186 -171 -228 -260 -250 -276 -253 -280 -240 -230 -240 -200 -220 -218 -198 -185 -201 -196 -196 -186 -179 -182 -185 -185 -173 -179 -174 -182 -180 -175 -196 -195 -195 -228 -202 -237 -211 -206 -204 -219 -185 -166 -173 -158 -144 -154 -129 -165 -142 -161 -171 -119 -131 -83 -147 18 382 -54 -154 -157 -222 -154 -226 -200 -190 -184 -143 -150 -99 -102 -86 -68 -49 -27 -22 -9 -13 -18 -39 -68 -102 -136 -149 -162 -176 -172 -175 -157 -188 -170 -163 -151 -166 -131 -158 -142 -158 -133 -140 -131 -128 -126 -142 -141 -142 -123 -150 -139 -145 -160 -165 -160 -160 -139 -138 -128 -130 -83 -103 -87 -84 -92 -98 -79 -117 -49 -85 -98 -88 -120 -109 -67 -111 -21 -131 74 325 130 -228 -398 -283 -325 -298 -270 -278 -287 -254 -243 -216 -187 -188 -192 -169 -165 -154 -93 -142 -98 -152 -111 -180 -163 -224 -216 -241 -288 -250 -235 -249 -244 -234 -214 -211 -183 -204 -180 -197 -153 -184 -172 -157 -168 -163 -161 -168 -126 -179 -145 -180 -191 -187 -250 -207 -242 -212 -214 -201 -134 -178 -86 -129 -126 -133 -181 -154 -202 -179 -183 -171 -111 -174 62 534 66 -213 -198 -209 -146 -197 -191 -164 -152 -150 -157 -108 -95 -65 -42 -50 -21 -13 34 12 11 -31 -25 -66 -90 -140 -176 -156 -194 -185 -190 -172 -203 -162 -209 -155 -158 -149 -170 -164 -165 -132 -168 -125 -168 -95 -135 -142 -172 -123 -155 -115 -174 -122 -140 -141 -191 -95 -171 -89 -103 -53 -94 -91 -118 -78 -45 -77 -86 -81 -121 -93 -79 -97 -47 -152 97 358 102 -279 -481 -338 -409 -375 -402 -377 -387 -349 -359 -324 -319 -260 -281 -220 -232 -193 -187 -191 -187 -182 -233 -239 -316 -258 -309 -267 -343 -309 -350 -303 -302 -290 -363 -316 -323 -256 -298 -263 -256 -250 -302 -244 -318 -246 -297 -255 -325 -252 -288 -233 -272 -263 -270 -259 -299 -219 -355 -308 -305 -275 -204 -241 -274 -243 -281 -231 -299 -221 -197 -195 -261 -109 165 -82 -285 -225 -338 -242 -312 -284 -285 -254 -244 -208 -250 -177 -184 -157 -185 -121 -118 -124 -83 -123 -107 -73 -117 -173 -214 -258 -269 -281 -253 -303 -257 -262 -275 -245 -274 -279 -206 -262 -264 -282 -217 -268 -231 -262 -272 -266 -236 -245 -259 -273 -228 -257 -225 -251 -216 -306 -258 -268 -300 -219 -233 -279 -224 -200 -174 -156 -155 -216 -234 -243 -140 -254 -168 -211 -200 -78 169 398 -104 -259 -198 -287 -236 -264 -224 -245 -271 -224 -256 -240 -179 -183 -161 -163 -108 -77 -87 -76 -13 -99 -114 -242 -187 -259 -313 -265 -262 -255 -290 -274 -250 -271 -245 -256 -213 -250 -183 -266 -231 -223 -213 -259 -234 -175 -226 -208 -178 -174 -151 -229 -182 -181 -189 -183 -209 -234 -204 -228 -236 -170 -185 -189 -135 -158 -116 -158 -184 -227 -189 -222 -180 -232 -132 -191 150 576 148 -362 -326 -261 -251 -309 -298 -293 -252 -234 -250 -241 -185 -172 -137 -124 -99 -119 -147 -106 -26 -112 -95 -198 -234 -257 -265 -236 -256 -293 -267 -255 -309 -299 -261 -317 -256 -286 -292 -280 -235 -239 -207 -270 -315 -282 -220 -264 -276 -253 -276 -294 -277 -328 -281 -271 -273 -248 -278 -284 -260 -242 -207 -215 -152 -176 -180 -244 -298 -307 -198 -264 -258 -266 -198 94 131 -116 -382 -351 -311 -329 -312 -293 -302 -278 -241 -300 -291 -233 -256 -185 -169 -154 -117 -115 -69 -158 -157 -198 -197 -269 -313 -320 -367 -357 -345 -374 -341 -304 -316 -318 -307 -330 -342 -319 -333 -295 -304 -315 -302 -294 -280 -309 -336 -346 -281 -348 -338 -315 -330 -350 -378 -365 -374 -368 -357 -405 -421 -425 -392 -447 -400 -446 -373 -451 -451 -529 -505 -523 -625 -526 -640 -547 -619 -381 163 -663 -698 -583 -744 -698 -729 -710 -722 -688 -762 -715 -768 -719 -693 -701 -730 -693 -686 -722 -644 -777 -722 -827 -776 -808 -862 -881 -911 -887 -923 -868 -909 -887 -916 -916 -859 -908 -921 -942 -924 -968 -924 -925 -941 -929 -983 -934 -927 -943 -941 -947 -929 -941 -954 -926 -921 -944 -941 -923 -961 -892 -939 -920 -941 -913 -780 -853 -860 -867 -868 -826 -957 -784 -1003 -791 -914 -677 119 -807 -933 -677 -875 -801 -794 -710 -788 -748 -759 -692 -666 -630 -669 -646 -603 -532 -599 -647 -602 -642 -573 -628 -642 -714 -709 -687 -661 -620 -621 -612 -661 -651 -617 -612 -651 -601 -650 -577 -511 -511 -500 -524 -488 -541 -484 -503 -572 -520 -479 -518 -512 -425 -482 -484 -425 -450 -393 -361 -430 -430 -491 -465 -416 -349 -360 -252 -202 -345 -328 -285 -318 -293 -326 -404 -386 -32 561 265 -386 -349 -290 -266 -262 -224 -271 -167 -148 -191 -137 -138 -63 -98 -43 31 67 83 91 148 111 83 63 -17 -72 -70 -64 -84 -68 -54 -2 21 -15 13 29 31 62 38 71 87 51 63 102 108 114 91 136 182 133 189 170 132 163 167 155 166 149 206 240 259 251 252 285 269 319 279 266 350 299 288 223 201 315 239 332 204 253 417 615 904 273 143 310 307 323 380 403 385 457 443 482 499 487 473 564 515 517 550 556 583 511 579 530 436 362 360 317 343 402 417 460 423 441 449 451 444 479 436 480 518 485 497 459 553 536 536 546 518 513 546 509 465 486 446 467 511 471 493 500 539 547 645 567 550 547 511 577 468 589 457 593 818 754 882 365 269 401 364 371 367 400 404 392 371 399 426 492 479 520 537 536 578 565 580 563 530 454 473 450 427 401 408 428 417 437 437 437 416 389 419 377 388 419 456 450 418 463 506 438 470 441 423 436 429 481 432 373 368 461 446 429 464 460 500 501 426 427 446 439 519 577 514 494 554 561 506 544 433 433 375 827 1153 349 -103 -23 136 152 146 78 130 152 154 168 185 193 205 233 278 304 339 331 302 375 333 263 252 167 144 125 96 101 148 107 104 145 135 74 129 180 63 103 141 114 162 121 168 200 136 178 150 167 135 136 150 164 149 159 190 135 139 172 161 156 126 143 193 188 217 135 127 217 139 175 110 94 124 629 914 210 -83 58 73 122 159 120 160 153 151 199 140 192 234 219 256 318 278 283 349 332 258 250 204 163 117 107 137 101 124 122 115 78 71 93 69 125 143 104 129 130 116 121 90 70 36 6 7 26 52 -13 44 -7 -13 59 17 68 99 49 2 30 86 145 185 62 27 82 74 120 42 58 -5 228 806 547 -168 -224 -81 -88 -53 -73 4 -15 16 31 8 32 9 79 84 121 159 179 231 246 216 178 210 147 -11 -23 -17 -50 -42 -58 -57 -81 -45 -68 -30 -35 -55 -6 -58 -84 -120 -39 -29 -81 -44 -52 -15 3 -85 -24 -5 20 10 -51 -20 -72 -56 -17 -28 -62 27 8 52 23 94 104 23 -16 -49 -31 -60 -38 -125 -47 528 694 59 -185 -11 -100 -139 -54 -34 -71 -95 -93 -49 -28 -77 33 48 60 116 171 
#II[uV]
48405 42533 38692 32777 28974 23521 19228 13809 9442 3702 -276 -291 -302 -264 -246 -258 -274 -218 -268 -219 -255 -243 -193 -174 -228 -247 -265 -253 -254 -173 -177 -116 -80 -167 -221 -203 -289 -262 -266 -229 -368 -402 -75 906 1026 -195 -550 -284 -202 -243 -245 -207 -156 -171 -189 -135 -85 -39 -52 -22 -35 47 58 68 103 118 92 63 0 -23 -91 -85 -113 -94 -118 -95 -151 -74 -95 -127 -87 -56 -136 -61 -115 -91 -117 -87 -151 -77 -79 -64 -113 -59 -110 -91 -73 -69 -103 -32 -90 -68 -49 -61 -10 6 7 35 -1 51 40 49 5 -1 -9 45 72 89 113 215 122 88 44 0 9 -1 -15 -117 -77 -13 610 1321 247 -387 -220 -250 -106 -168 -139 -160 -136 -142 -129 -91 -92 -71 -60 -7 41 78 83 115 91 78 16 15 -36 -57 -88 -77 -34 -33 -83 -93 -59 -88 -91 -10 -53 -42 -40 -34 -7 5 -27 3 15 -17 -54 18 -15 37 50 77 98 128 176 77 106 118 62 15 -45 -71 -115 -207 -253 -230 -234 -199 -192 -244 -152 -236 -153 -161 -103 -88 -22 -39 -61 -79 -86 -89 -80 -152 -84 -195 -159 192 714 462 -517 -482 -434 -545 -404 -496 -361 -416 -308 -400 -336 -396 -272 -311 -261 -316 -213 -222 -111 -170 -118 -217 -217 -285 -319 -393 -359 -477 -417 -450 -385 -421 -337 -429 -293 -440 -308 -427 -303 -322 -344 -389 -268 -400 -270 -380 -295 -393 -158 -276 -319 -263 -275 -370 -267 -310 -281 -352 -259 -313 -255 -262 -198 -288 -267 -281 -281 -279 -224 -318 -181 -239 -228 -295 -304 -360 -249 -341 -291 -424 -287 -134 638 601 -378 -561 -423 -458 -381 -414 -344 -436 -286 -395 -251 -316 -175 -281 -186 -194 -100 -154 -20 -86 -15 -169 -63 -189 -161 -272 -230 -330 -326 -321 -366 -399 -337 -368 -331 -383 -265 -365 -267 -298 -244 -395 -289 -409 -339 -402 -385 -419 -358 -356 -299 -371 -313 -342 -236 -314 -312 -352 -337 -313 -270 -271 -186 -233 -94 -246 -201 -301 -214 -284 -231 -266 -299 -282 255 1003 499 -317 -284 -323 -207 -315 -250 -339 -295 -297 -297 -293 -264 -262 -214 -255 -154 -183 -1 -44 33 -97 -60 -211 -246 -299 -359 -341 -370 -378 -318 -339 -311 -335 -301 -311 -217 -296 -248 -298 -236 -291 -244 -294 -240 -278 -188 -239 -238 -256 -226 -268 -265 -301 -242 -260 -213 -257 -219 -205 -96 -217 -70 -171 -166 -239 -237 -265 -280 -308 -223 -271 -236 -206 416 695 -110 -347 -267 -353 -288 -334 -280 -299 -257 -259 -202 -205 -104 -171 -21 -67 64 4 133 60 80 23 57 -89 -63 -134 -167 -172 -122 -212 -155 -201 -112 -177 -97 -148 -57 -124 -49 -105 -82 -140 -111 -138 -157 -133 -87 -180 -101 -150 -71 -148 -103 -169 -149 -163 -167 -158 -39 -100 19 -63 8 -120 -99 -169 -196 -218 -132 -207 -87 -164 283 1102 315 -173 -37 -208 -80 -246 -182 -213 -198 -193 -146 -145 -91 -100 -2 -61 51 -20 63 3 69 -23 27 -87 -49 -178 -164 -216 -236 -255 -242 -275 -226 -247 -220 -258 -100 -218 -141 -220 -218 -213 -173 -207 -176 -197 -165 -173 -118 -158 -112 -159 -130 -181 -168 -208 -188 -186 -161 -144 -41 -91 -44 -70 -53 -122 -142 -191 -243 -251 -148 -219 -57 -142 218 938 149 -266 -193 -348 -295 -350 -285 -299 -271 -246 -146 -178 -111 -103 -52 -52 -10 -1 15 12 38 -5 -15 -58 -59 -96 -102 -112 -140 -134 -149 -180 -130 -173 -131 -143 -103 -92 -96 -72 -70 -96 -86 -96 -101 -123 -139 -146 -142 -143 -144 -143 -128 -134 -134 -133 -126 -114 -106 -91 -60 -49 -58 -79 -72 -117 -128 -154 -143 -127 -14 -63 142 253 115 -150 -364 -301 -365 -441 -419 -461 -426 -436 -399 -385 -332 -325 -272 -271 -211 -205 -124 -151 -76 -130 -94 -183 -175 -263 -340 -333 -373 -377 -367 -401 -356 -383 -346 -368 -287 -342 -298 -328 -304 -329 -281 -337 -280 -349 -277 -319 -308 -305 -265 -295 -242 -283 -241 -271 -254 -250 -251 -258 -253 -242 -257 -219 -207 -205 -132 -165 -116 -171 -176 -201 -238 -252 -234 -241 -136 -141 34 -2 67 170 -78 -167 -311 -333 -287 -361 -292 -311 -234 -241 -193 -191 -140 -139 -100 -88 -47 -64 -22 -51 -23 -100 -85 -155 -188 -222 -238 -244 -255 -245 -219 -233 -173 -196 -177 -165 -139 -153 -138 -150 -132 -151 -136 -174 -156 -162 -172 -174 -176 -188 -170 -199 -191 -200 -208 -201 -225 -206 -202 -184 -175 -152 -106 -139 -106 -120 -144 -142 -193 -192 -191 -229 -108 -184 28 -136 122 930 66 -178 -103 -261 -140 -248 -155 -207 -143 -144 -113 -96 -74 -60 -12 0 53 52 91 86 81 39 24 -72 -67 -144 -127 -205 -176 -215 -161 -216 -190 -187 -165 -182 -153 -174 -136 -181 -134 -184 -137 -193 -136 -211 -178 -191 -160 -191 -188 -188 -176 -197 -164 -189 -159 -170 -154 -162 -128 -153 -120 -135 -110 -120 -103 -106 -89 -138 -161 -167 -200 -197 -161 -157 -33 -137 164 519 168 -287 -481 -387 -442 -450 -408 -447 -397 -399 -352 -353 -287 -305 -277 -259 -214 -204 -114 -164 -98 -155 -100 -185 -154 -254 -232 -291 -329 -308 -295 -306 -305 -288 -258 -252 -217 -233 -185 -215 -168 -204 -200 -203 -181 -212 -199 -205 -173 -212 -181 -230 -223 -240 -285 -257 -286 -235 -220 -202 -112 -160 -59 -138 -145 -183 -220 -244 -253 -286 -214 -253 -71 -215 181 1001 128 -298 -243 -300 -176 -267 -177 -227 -170 -187 -180 -153 -113 -125 -69 -72 -11 -19 35 -14 46 -23 -1 -87 -78 -165 -214 -217 -228 -262 -216 -254 -221 -230 -212 -206 -162 -205 -181 -203 -173 -213 -200 -216 -197 -192 -172 -218 -195 -216 -170 -225 -210 -211 -142 -203 -182 -190 -154 -159 -97 -125 -44 -88 -74 -83 11 -149 -116 -207 -183 -186 -132 -156 -62 -189 195 641 245 -406 -602 -476 -498 -509 -550 -517 -495 -487 -483 -437 -407 -380 -326 -308 -281 -256 -175 -221 -161 -230 -178 -272 -285 -331 -373 -352 -400 -368 -395 -371 -310 -369 -340 -348 -327 -330 -309 -318 -295 -325 -271 -321 -353 -326 -311 -316 -331 -319 -300 -328 -243 -309 -290 -304 -301 -298 -299 -272 -254 -247 -115 -261 -324 -312 -342 -313 -316 -286 -151 -250 -157 56 399 194 -330 -320 -375 -327 -337 -313 -310 -271 -251 -244 -217 -228 -196 -165 -123 -105 -30 -60 90 52 68 70 46 -28 -54 -164 -120 -195 -179 -241 -206 -197 -203 -220 -190 -253 -91 -229 -147 -240 -128 -224 -183 -242 -211 -244 -195 -270 -224 -290 -218 -272 -199 -271 -237 -326 -233 -277 -245 -226 -225 -210 -125 -129 -52 -97 -150 -234 -232 -278 -157 -277 -146 -321 -176 -140 499 990 -170 -458 -293 -377 -261 -352 -295 -321 -313 -285 -315 -320 -220 -222 -202 -197 -101 -77 -47 -52 -14 -110 -86 -247 -190 -296 -359 -346 -333 -326 -380 -326 -286 -306 -243 -294 -247 -280 -201 -309 -219 -300 -263 -290 -284 -230 -261 -290 -238 -244 -222 -271 -225 -256 -222 -231 -232 -327 -278 -348 -312 -269 -255 -228 -170 -160 -142 -305 -264 -333 -323 -317 -220 -321 -186 -268 281 1048 405 -452 -573 -450 -369 -408 -372 -372 -352 -322 -315 -301 -253 -221 -186 -165 -141 -113 -134 -109 -18 -120 -112 -172 -231 -289 -314 -301 -307 -353 -315 -303 -374 -364 -318 -382 -314 -325 -312 -357 -275 -314 -258 -321 -329 -364 -296 -312 -343 -329 -304 -375 -310 -355 -316 -296 -287 -314 -291 -297 -248 -165 -150 -163 -92 -193 -249 -299 -327 -353 -281 -305 -293 -325 -144 366 614 65 -526 -495 -446 -400 -376 -349 -391 -379 -380 -387 -359 -343 -334 -244 -250 -209 -146 -132 -94 -156 -126 -193 -222 -313 -361 -368 -411 -453 -422 -426 -403 -403 -414 -372 -338 -364 -365 -325 -336 -338 -321 -376 -315 -365 -353 -378 -380 -381 -352 -414 -408 -389 -382 -418 -386 -442 -398 -404 -419 -459 -447 -517 -441 -472 -397 -438 -351 -564 -588 -648 -645 -644 -720 -652 -788 -673 -668 -149 740 -592 -1011 -801 -892 -779 -849 -780 -829 -799 -833 -801 -826 -786 -791 -748 -753 -711 -684 -704 -606 -729 -656 -777 -797 -857 -925 -927 -997 -969 -1012 -975 -984 -992 -1005 -996 -1004 -1003 -1006 -1004 -997 -1023 -1032 -1007 -1004 -1007 -1052 -1011 -1037 -1009 -1014 -1001 -1004 -1006 -989 -998 -990 -984 -1029 -956 -1003 -921 -935 -890 -838 -857 -716 -869 -876 -893 -943 -879 -982 -839 -1031 -829 -840 -324 705 -600 -1077 -858 -1023 -834 -877 -803 -840 -792 -817 -803 -704 -776 -623 -766 -1023 -697 -699 -688 -606 -674 -573 -678 -665 -706 -742 -714 -743 -730 -728 -689 -732 -701 -710 -676 -684 -619 -639 -583 -517 -527 -524 -517 -506 -539 -500 -540 -550 -573 -546 -548 -524 -504 -535 -496 -437 -480 -472 -428 -451 -491 -522 -435 -399 -368 -283 -311 -389 -456 -448 -433 -410 -401 -389 -472 -402 117 1056 593 -512 -496 -399 -322 -320 -299 -319 -284 -240 -220 -185 -149 -70 -71 -14 56 104 142 215 242 219 204 136 71 -6 -44 -40 -84 -41 -72 -20 6 -14 7 52 44 20 48 86 41 62 21 55 47 57 47 77 101 89 111 107 132 138 138 134 130 147 183 217 200 221 236 274 325 370 330 400 374 281 279 182 146 275 132 314 162 269 593 1164 1476 286 -42 162 189 259 226 314 267 352 339 378 373 443 401 475 488 546 576 625 636 607 631 557 494 431 404 366 347 415 439 418 418 451 445 493 475 547 514 546 572 534 545 531 575 618 557 575 554 572 572 583 521 558 538 538 568 605 638 667 733 723 695 576 578 561 493 558 425 594 407 607 987 1332 1430 336 165 362 349 370 377 406 409 416 393 445 466 509 559 607 666 662 673 718 761 697 683 643 607 527 531 494 482 489 455 488 498 488 453 474 471 444 502 515 511 491 490 496 494 475 479 440 418 433 418 483 443 423 412 498 469 455 489 516 524 494 480 538 552 579 659 560 511 505 508 529 436 529 418 429 412 1160 1834 583 -228 -115 21 61 85 47 87 122 128 131 119 171 200 204 247 316 364 382 395 421 396 337 270 176 144 66 53 71 86 14 52 77 46 53 85 112 73 114 123 132 177 138 157 171 149 133 107 115 104 105 119 155 132 145 159 142 132 171 154 233 221 208 300 194 186 130 65 133 63 113 20 83 197 1089 1664 396 -230 -117 -49 37 78 60 85 88 132 159 117 181 208 205 264 335 332 361 437 419 356 336 303 253 188 184 175 142 159 113 113 106 71 100 100 124 117 110 146 119 119 112 63 46 23 -26 -29 -25 -4 -40 -29 -39 -48 -2 4 62 54 83 96 120 197 193 114 8 -19 -1 -40 21 -22 -24 -66 235 1257 1266 -121 -424 -203 -228 -118 -144 -66 -96 -25 -9 -38 -4 39 118 110 174 216 231 254 300 291 241 199 119 5 -45 -109 -122 -97 -126 -162 -139 -125 -139 -88 -89 -126 -63 -83 -116 -153 -84 -136 -162 -118 -148 -140 -70 -143 -90 -75 -51 -70 -113 -99 -138 -106 -42 -84 -71 98 57 84 82 54 -1 -69 -102 -138 -118 -155 -166 -200 1 941 1416 145 -408 -222 -267 -230 -198 -166 -188 -185 -174 -139 -113 -141 -10 32 54 84 179 
#III[uV]
51462 45641 41167 35274 30817 24979 20542 14752 10246 4124 -44 -55 -13 -39 -73 -18 -85 -61 -74 -92 -74 -79 -76 -52 -92 -103 -148 -68 -50 -11 -11 32 57 -36 -63 -11 -39 -59 -87 -76 -176 -166 -54 372 559 -93 -375 -182 -111 -78 -96 -66 -87 -50 -50 -10 1 29 13 40 3 88 68 101 124 116 144 113 44 51 15 1 -39 26 -23 -25 -22 6 -32 -10 -11 37 0 36 0 42 9 22 -20 -9 -10 8 7 52 -20 30 4 35 48 64 64 42 11 88 55 72 68 76 46 83 100 102 6 93 76 61 117 150 125 217 136 66 96 96 98 87 68 41 92 106 359 765 216 -106 -67 -49 65 21 -8 27 44 42 36 65 47 97 49 56 127 136 129 144 110 156 133 110 134 119 68 94 102 40 30 62 70 63 47 120 57 58 109 117 105 84 72 71 110 96 62 96 114 125 173 218 259 241 249 216 201 194 150 89 95 24 10 -43 -100 -141 -135 -77 -112 -98 -63 -111 -60 -18 0 -10 78 31 -44 -6 31 -20 -34 -25 -9 -42 -9 78 392 304 -65 -150 -57 -106 -36 -86 -61 -26 -18 -51 -6 -22 -29 -39 43 -14 45 14 51 54 71 23 48 -38 -17 -40 -4 -61 -52 -83 -64 -75 -83 -77 -13 -64 -28 -43 -9 -28 -13 -36 -3 -51 8 -81 -6 -58 44 0 -71 -22 7 9 -13 -27 -7 -43 -40 -54 5 -30 -11 -25 -39 -81 -51 -40 35 4 27 -14 -20 -44 -55 -78 -10 -65 -24 -91 6 60 421 369 -6 -180 -56 -114 -62 -128 -71 -103 -48 -70 -53 -61 21 -62 12 -25 29 18 51 17 83 -5 53 -24 1 -66 -28 -70 -75 -103 -86 -114 -67 -107 -65 -134 -27 -117 -45 -51 -32 -123 -72 -127 -60 -159 -70 -108 -101 -171 -92 -151 -60 -113 -75 -114 -71 -110 -55 -107 6 21 47 21 -9 -131 -58 -152 -36 -176 -89 -96 -70 -94 70 381 263 -228 -146 -204 -92 -172 -66 -180 -137 -178 -130 -125 -131 -158 -101 -168 -88 -148 -4 -32 22 -55 44 -94 -56 -145 -138 -189 -122 -198 -133 -228 -161 -163 -92 -172 -102 -154 -76 -156 -75 -81 -82 -172 -112 -148 -76 -141 -107 -145 -77 -139 -93 -171 -89 -152 -71 -144 -70 -127 -42 -105 -6 -81 -52 -160 -126 -187 -111 -165 -76 -129 -51 -78 190 409 -4 -127 -79 -129 -82 -144 -33 -115 -104 -132 -32 -125 37 -60 2 -45 85 1 125 -2 115 72 118 -14 56 -19 38 -59 43 -102 33 -80 21 -47 67 -38 60 -41 79 -55 -16 -23 46 -61 -11 -103 -11 -91 -13 -73 44 -53 0 -53 36 -68 29 -51 82 12 62 -7 11 -72 -29 -98 -48 -104 -34 -93 -16 -26 110 314 170 -68 -74 -108 -57 -142 -80 -109 -82 -132 -78 -124 -59 -104 -59 -86 29 -90 3 -54 27 -56 -5 -90 -26 -104 -103 -133 -122 -152 -163 -167 -104 -152 -80 -147 -31 -111 -68 -109 -45 -81 -23 -63 -7 -64 -16 -57 -13 -76 -12 -64 -37 -61 -19 -59 12 -51 -10 7 30 14 28 11 -18 -39 -36 -57 -40 -73 -8 -47 65 -4 130 521 110 -98 -39 -117 -43 -89 -18 -68 -29 -52 -10 -22 -5 -3 -6 -6 17 0 52 34 70 52 47 50 39 29 5 16 -21 15 -20 -30 11 -24 6 -9 7 12 -5 10 -7 -20 -9 -34 -30 -41 -37 -39 -43 -35 -37 -33 -13 -12 -8 -23 2 2 15 30 44 33 33 -15 -13 -56 -66 -82 -76 -56 -13 16 73 103 51 77 40 -7 7 -50 -17 -35 -11 -24 -20 -13 -2 12 13 23 34 31 65 55 49 62 53 47 33 5 4 -49 -19 -60 -18 -57 -31 -31 -7 -1 18 9 34 4 25 -6 17 -21 15 -47 -21 -29 -41 -39 -19 -20 -12 -11 6 -3 5 5 -1 9 0 7 -1 19 16 25 47 36 36 18 -3 0 -24 -37 -21 -27 42 29 134 112 93 270 88 12 -8 -68 -55 -69 -33 -41 -8 -6 2 17 29 22 37 40 73 68 99 81 103 86 86 73 71 27 38 9 24 -5 11 6 26 23 40 33 46 48 57 46 54 28 46 10 29 10 6 0 6 -7 4 -3 4 -4 19 0 11 4 3 19 44 32 60 33 51 24 10 -12 -28 -49 -30 -57 10 -53 112 11 104 547 120 -23 54 -38 13 -21 45 -17 41 -1 36 3 28 26 56 49 81 74 100 100 100 78 93 30 68 4 35 -28 -4 -39 -3 -28 -19 -24 -14 -16 -22 -16 5 -23 -1 -44 -6 -65 -9 -69 -37 -49 -37 -40 -49 -42 -15 -32 -3 -29 -19 -31 -25 -31 -45 -50 -32 -51 -18 -21 -23 10 -40 -53 -63 -78 -79 -87 -94 -45 -12 -6 90 193 38 -59 -82 -103 -116 -151 -137 -169 -110 -145 -109 -136 -100 -116 -85 -90 -48 -49 -20 -21 0 -2 10 -5 9 -29 -15 -50 -40 -57 -59 -57 -61 -53 -44 -41 -34 -29 -4 -17 -14 -20 -27 -45 -12 -48 -37 -36 -47 -32 -36 -50 -32 -53 -35 -49 -43 -23 -6 0 21 17 26 -8 -19 -50 -39 -89 -51 -107 -30 -81 39 -41 118 467 62 -84 -45 -91 -30 -69 14 -63 -18 -37 -22 -45 -18 -59 -26 -22 10 -6 0 -26 34 8 23 -20 12 -24 -37 -60 -34 -77 -25 -81 -18 -68 -3 -51 -3 -55 -11 -38 -8 -80 -31 -90 -29 -96 -37 -76 -22 -92 -15 -109 -35 -88 -1 -61 9 -95 17 -70 5 -71 49 3 44 -5 56 -72 -29 -126 -61 -93 -52 -58 -14 -36 98 282 142 -126 -121 -137 -89 -134 -148 -139 -108 -137 -123 -113 -87 -119 -44 -87 -48 -63 11 -29 25 -47 55 -32 31 -72 -63 -84 -56 -59 -44 -67 -7 -78 23 -32 -4 -73 -10 -54 -38 -75 31 -77 -34 -80 -13 -60 -5 -67 -11 -95 29 -45 -20 -45 -2 -78 55 35 50 27 88 -19 -49 -69 -60 -81 -16 -65 45 -54 103 165 234 277 -44 -95 -37 -84 -24 -29 -25 -17 -6 -35 32 -51 -11 -7 61 15 88 64 173 176 175 143 164 144 160 93 148 86 73 61 51 64 71 25 83 25 114 32 116 41 88 43 48 19 60 21 41 -24 35 -17 10 -15 26 -20 -20 -20 25 -9 55 -7 7 68 99 71 122 58 4 -17 1 -34 -16 -22 21 -110 24 -62 329 591 -65 -199 -94 -90 -25 -88 -70 -75 -42 -60 -58 -80 -41 -38 -40 -33 7 0 39 24 0 -11 27 -5 -3 -36 -46 -81 -70 -70 -89 -52 -36 -35 1 -38 -34 -29 -17 -42 11 -77 -50 -30 -50 -55 -35 -81 -60 -69 -71 -41 -43 -75 -32 -48 -22 -92 -73 -119 -75 -99 -70 -39 -34 -1 -26 -147 -80 -106 -134 -95 -40 -89 -54 -76 131 472 257 -90 -247 -188 -118 -98 -73 -79 -100 -88 -65 -60 -68 -48 -49 -41 -42 6 12 -2 7 -7 -17 26 2 -32 -48 -65 -51 -59 -47 -47 -64 -65 -56 -65 -57 -38 -19 -77 -40 -75 -51 -50 -14 -82 -76 -48 -67 -75 -27 -80 -33 -26 -34 -25 -14 -66 -13 -13 11 76 57 51 59 -17 -69 -54 -29 -45 -83 -41 -34 -59 53 272 483 182 -143 -144 -134 -70 -63 -55 -89 -101 -138 -87 -68 -110 -78 -58 -81 -54 -28 -16 -25 2 31 5 -24 -44 -47 -47 -44 -96 -77 -51 -61 -98 -97 -53 -30 -34 -22 -6 -3 -42 -17 -60 -12 -70 -73 -69 -44 -34 -70 -65 -69 -73 -52 -67 -7 -76 -24 -35 -61 -54 -26 -91 -49 -24 2 7 21 -112 -136 -119 -140 -121 -94 -125 -148 -125 -49 231 577 71 -312 -218 -148 -80 -120 -70 -106 -110 -71 -85 -58 -66 -98 -46 -23 -17 2 17 38 47 65 49 -21 -48 -63 -46 -85 -82 -89 -107 -75 -104 -88 -80 -144 -95 -85 -62 -72 -55 -107 -82 -62 -77 -68 -76 -110 -65 -72 -54 -74 -65 -34 -71 -68 -40 -88 -32 -41 -29 3 30 102 56 63 -16 -15 -25 -74 -53 -24 -55 -28 -37 73 352 586 206 -143 -180 -148 -33 -83 -93 -51 -43 -58 -110 -37 -146 46 -119 -420 -165 -100 -40 -3 -32 0 -49 -22 7 -33 -26 -82 -110 -107 -77 -71 -50 -92 -63 -33 -17 10 -5 -6 -15 -23 7 -17 1 -16 -36 21 -53 -66 -30 -11 -78 -53 -12 -11 -30 -79 -67 -21 -61 -31 29 16 -18 77 -58 -186 -110 -119 -148 -91 -108 -63 -68 -15 149 494 327 -126 -146 -108 -55 -58 -75 -47 -116 -91 -29 -47 -11 -7 27 28 25 36 59 124 93 108 121 73 89 66 26 23 0 27 -18 -18 -15 1 -6 23 12 -42 10 15 -45 11 -42 -47 -61 -57 -44 -59 -81 -44 -77 -62 0 -24 -28 -21 -36 -1 -23 -22 -59 -29 -15 -11 55 51 51 134 23 -18 -9 -41 -54 -40 -107 -18 -42 16 176 549 571 13 -185 -148 -117 -64 -154 -89 -118 -105 -104 -103 -125 -43 -72 -88 -27 28 26 69 53 96 52 27 57 68 43 48 4 13 21 -42 -4 10 -3 41 30 68 78 66 54 48 48 72 22 81 21 28 36 59 25 74 55 71 92 71 56 133 145 166 194 176 50 9 27 14 -17 -19 -43 4 -49 13 168 577 547 -28 -104 -39 -15 -1 10 5 5 24 22 45 40 17 79 87 128 125 95 152 180 134 153 188 133 76 104 93 73 60 38 50 61 51 36 85 51 67 114 95 55 40 72 32 -12 37 8 -1 -4 -3 -11 1 10 50 44 37 23 26 24 56 24 -7 53 111 106 139 140 -16 -3 10 -46 -32 -70 -15 -14 -3 36 332 681 233 -125 -91 -115 -91 -61 -30 -42 -29 -26 -36 -65 -21 -4 -28 -31 12 25 51 93 46 63 74 17 9 0 -58 -42 -30 -61 -92 -51 -67 -88 -20 -43 -67 10 11 -18 18 14 16 -11 -28 12 -44 -43 -52 -31 -30 -30 -8 -16 -14 -30 6 -6 0 -7 77 94 65 106 6 -30 -5 -62 -83 -76 -62 -89 -11 72 460 749 186 -146 -176 -123 -84 -81 -59 -75 -65 -19 -39 -23 -11 -26 -14 8 16 53 77 87 86 97 86 98 89 70 76 37 41 34 -8 -2 28 0 6 30 -1 -25 6 17 -10 2 -8 -26 -24 -12 -32 -37 -52 -56 -27 -73 -31 -35 -61 -12 -6 -44 33 93 90 111 48 -70 -54 -46 -83 -114 -99 -64 -83 -61 6 450 718 47 -200 -121 -140 -65 -70 -71 -81 -41 -41 -47 -36 29 38 25 53 56 51 22 54 74 62 -10 -28 17 -22 -91 -72 -54 -68 -105 -58 -80 -70 -58 -54 -71 -57 -25 -31 -32 -45 -107 -81 -73 -96 -125 -73 -58 -66 -70 -71 -81 -61 -79 -66 -50 -24 -56 -8 71 48 32 58 -40 -105 -92 -86 -88 -86 -94 -128 -74 49 412 722 86 -222 -210 -166 -90 -143 -132 -117 -90 -80 -90 -85 -64 -44 -16 -5 -32 8 
#avR[uV]
-22673 -19712 -18109 -15140 -13565 -11031 -8957 -6433 -4319 -1640 254 264 295 244 209 249 231 187 230 173 217 203 155 147 182 195 191 219 229 167 171 133 108 149 189 197 269 232 222 191 280 319 48 -720 -746 148 362 192 146 204 197 174 112 146 163 130 86 54 59 42 37 -3 -23 -18 -41 -60 -19 -6 21 49 99 86 93 107 106 82 140 77 79 122 81 75 136 80 114 112 122 99 140 72 74 68 116 86 100 106 75 86 127 64 122 90 55 105 38 29 26 2 24 -10 10 1 -2 48 47 -14 -14 -14 -50 -106 -53 -55 3 49 39 45 49 138 123 67 -430 -938 -139 334 186 226 139 179 135 173 158 163 148 124 116 119 84 35 21 -10 -19 -43 -35 0 49 39 103 117 122 124 86 54 98 125 94 120 115 70 81 72 95 93 60 36 64 32 39 65 85 29 72 24 35 31 30 -7 -51 30 -5 -20 12 29 93 84 120 186 203 159 166 160 136 195 120 181 123 152 103 83 61 55 39 76 101 79 63 139 79 174 154 -153 -518 -309 484 407 405 492 386 453 330 403 299 375 333 385 257 291 283 309 236 229 137 197 154 228 242 265 310 373 356 446 391 409 353 384 295 390 287 408 294 405 298 308 337 370 266 375 274 339 292 364 181 276 283 252 279 374 260 296 278 330 239 286 257 247 192 275 247 240 256 259 242 320 195 232 218 273 276 321 244 309 279 378 290 164 -427 -416 375 470 395 401 350 349 308 384 262 359 224 286 185 250 192 181 115 163 46 95 57 166 90 177 162 239 216 294 288 270 323 342 303 314 299 316 251 307 245 272 228 333 253 346 309 323 350 365 307 270 252 295 283 285 199 257 276 297 309 259 273 282 210 243 89 180 172 225 196 196 186 218 264 235 -220 -812 -367 203 211 221 161 229 217 249 226 207 232 231 198 183 163 171 110 109 0 28 -22 70 82 164 218 227 290 246 309 278 252 225 230 253 255 225 165 218 209 219 198 250 203 207 184 204 150 168 184 183 188 198 218 215 197 184 177 185 184 141 75 164 67 130 140 159 173 171 224 225 185 207 210 166 -321 -490 108 284 227 288 247 262 263 241 205 193 186 142 123 141 22 44 -22 -3 -70 -61 -22 12 2 81 91 124 187 142 144 161 172 160 123 153 131 129 87 103 89 78 73 128 134 107 151 81 81 134 94 113 94 122 103 143 167 129 182 132 80 106 11 59 -3 84 84 120 171 166 114 160 79 151 -227 -945 -230 139 0 154 51 175 142 158 157 127 107 83 61 48 -26 18 -37 -24 -61 -30 -56 -5 -30 41 36 126 112 149 175 179 160 191 174 171 180 184 85 163 107 165 195 172 162 175 172 165 157 145 111 120 106 127 112 150 158 179 194 161 156 147 57 98 58 76 44 102 124 163 223 214 143 195 90 140 -153 -677 -94 217 174 289 274 306 276 265 256 220 141 167 108 101 49 49 18 1 11 5 -2 32 38 83 79 111 105 120 130 142 138 165 136 161 134 138 106 99 93 77 66 86 82 79 85 103 120 126 120 126 125 126 121 127 129 121 127 115 113 106 83 66 75 71 65 89 94 112 105 99 8 71 -105 -202 -89 189 384 297 369 416 410 443 420 423 388 378 330 331 279 283 228 221 157 179 101 162 120 206 192 266 342 308 363 347 358 372 340 367 343 367 296 347 315 330 316 326 289 326 287 326 266 304 287 285 255 285 236 277 245 269 256 253 251 263 253 246 256 229 215 218 156 183 134 180 175 200 226 233 223 227 158 156 32 59 -20 -35 122 173 306 298 259 326 276 290 230 238 194 200 154 150 118 109 84 98 72 92 74 143 128 192 224 236 257 248 267 243 224 237 187 208 198 182 162 177 167 173 159 165 159 180 171 168 176 174 179 184 172 198 193 197 218 202 231 209 204 194 197 169 136 156 132 132 149 135 179 167 176 200 113 158 27 142 -70 -656 -5 166 130 241 147 237 177 198 164 144 132 97 88 73 40 24 -13 -15 -41 -36 -31 0 21 87 101 147 144 190 174 195 159 202 180 175 158 174 142 166 139 170 134 162 134 161 131 176 159 167 142 170 163 167 168 181 162 175 149 154 141 146 105 128 104 109 101 109 91 111 69 112 129 127 160 153 114 134 27 134 -119 -422 -149 258 439 335 384 374 339 363 342 326 298 284 237 246 235 214 190 179 103 153 98 154 105 182 159 239 224 266 309 279 265 277 275 261 236 232 200 218 182 206 161 194 186 180 174 187 180 186 149 196 163 205 207 214 267 232 264 224 217 201 123 169 73 134 135 158 200 199 228 233 199 212 91 194 -121 -768 -97 256 220 255 161 232 184 195 161 169 168 131 104 95 56 61 16 16 -34 1 -28 27 13 76 84 153 195 187 211 223 203 213 212 196 211 181 160 177 175 183 169 172 184 171 182 143 153 180 184 169 163 170 192 166 141 172 187 143 163 124 100 89 69 90 96 81 17 113 101 144 152 139 106 126 54 171 -146 -499 -174 342 542 407 453 442 476 447 441 418 421 380 363 320 304 264 257 225 181 206 174 206 206 256 300 294 341 309 372 338 373 337 306 329 352 332 325 293 304 291 275 287 287 282 335 286 304 285 328 285 294 280 258 286 280 281 300 259 327 290 280 261 159 251 299 278 311 272 307 254 174 222 209 26 -282 -56 308 272 357 285 324 298 297 263 248 226 234 202 190 161 154 113 74 92 -3 35 19 1 35 101 134 211 195 238 216 272 231 230 239 233 232 266 148 246 206 261 173 246 207 252 242 255 215 258 242 281 223 264 212 261 226 316 246 272 272 223 229 245 174 165 113 127 152 225 233 261 148 266 157 266 188 109 -334 -694 137 358 245 332 249 308 259 283 292 254 285 280 199 203 181 180 105 77 67 64 14 104 100 245 188 277 336 306 297 290 335 300 268 288 244 275 230 265 192 288 225 261 238 274 259 203 244 249 208 209 187 250 203 219 205 207 220 281 241 288 274 220 220 209 152 159 129 231 224 280 256 270 200 277 159 229 -215 -812 -276 407 450 356 310 359 335 332 302 278 282 271 219 196 161 144 120 116 141 107 22 116 103 185 232 273 289 269 281 323 291 279 342 332 290 350 285 306 302 318 255 276 232 296 322 323 258 288 309 291 290 335 294 341 298 283 280 281 284 290 254 204 178 189 122 185 214 271 313 330 239 284 276 296 171 -230 -373 25 454 423 379 364 344 321 346 329 310 343 325 288 295 215 209 182 132 124 82 157 142 195 209 291 337 344 389 405 384 400 372 354 365 345 322 347 353 322 335 317 313 345 308 329 316 344 358 364 316 381 373 352 356 384 382 404 386 386 388 432 434 471 416 460 398 442 362 507 519 589 575 583 672 589 714 610 644 265 -451 628 855 692 818 739 789 745 776 743 797 758 797 753 742 725 742 702 685 713 625 753 689 802 787 833 894 904 954 928 967 922 946 939 960 956 931 955 964 973 961 996 978 966 973 968 1017 973 982 976 977 974 966 974 971 962 955 964 985 940 982 907 937 905 890 885 748 861 868 880 906 853 970 812 1017 810 877 501 -412 703 1005 768 949 817 835 756 814 770 788 747 685 703 646 706 813 614 649 668 604 658 573 653 654 710 725 700 702 675 675 650 696 676 664 644 668 610 645 580 514 519 512 521 497 540 492 521 561 547 513 533 518 465 509 490 431 465 433 394 440 460 507 450 407 359 321 282 295 400 388 359 364 347 358 438 394 -42 -809 -429 449 423 344 294 291 262 295 225 194 205 161 144 67 85 29 -43 -85 -113 -153 -195 -165 -144 -99 -27 39 57 52 84 54 63 11 -13 14 -10 -40 -37 -41 -43 -78 -64 -56 -42 -78 -77 -85 -69 -106 -141 -111 -150 -139 -132 -151 -153 -144 -148 -148 -194 -229 -229 -236 -244 -279 -297 -345 -304 -333 -362 -290 -283 -203 -173 -295 -185 -323 -183 -261 -505 -890 -1190 -279 -50 -236 -248 -291 -303 -359 -326 -404 -391 -430 -436 -465 -437 -519 -502 -531 -563 -590 -610 -559 -605 -543 -465 -396 -382 -341 -345 -409 -428 -439 -421 -446 -447 -472 -459 -513 -475 -513 -545 -510 -521 -495 -564 -577 -547 -560 -536 -542 -559 -546 -493 -522 -492 -503 -539 -538 -566 -583 -636 -635 -670 -572 -564 -554 -502 -567 -447 -592 -432 -600 -902 -1043 -1156 -350 -217 -382 -357 -371 -372 -403 -407 -404 -382 -422 -446 -501 -519 -563 -602 -599 -626 -642 -671 -630 -607 -549 -540 -489 -479 -447 -445 -459 -436 -462 -467 -463 -434 -432 -445 -410 -445 -467 -483 -471 -454 -480 -500 -457 -474 -441 -421 -434 -423 -482 -438 -398 -390 -480 -458 -442 -476 -488 -512 -497 -453 -482 -499 -509 -589 -568 -513 -500 -531 -545 -471 -537 -426 -431 -393 -994 -1494 -466 165 69 -78 -107 -116 -63 -109 -137 -141 -150 -152 -182 -203 -218 -262 -310 -351 -356 -348 -398 -364 -300 -261 -171 -144 -96 -74 -86 -117 -60 -78 -111 -91 -63 -107 -146 -68 -108 -132 -123 -170 -130 -163 -185 -142 -156 -129 -141 -120 -121 -134 -160 -141 -152 -174 -139 -136 -172 -157 -194 -174 -175 -247 -191 -202 -132 -96 -175 -101 -144 -65 -88 -161 -859 -1289 -303 156 29 -12 -79 -119 -90 -123 -120 -142 -179 -128 -187 -221 -212 -260 -327 -305 -322 -393 -376 -307 -293 -254 -208 -152 -146 -156 -122 -142 -117 -114 -92 -71 -97 -84 -125 -130 -107 -138 -125 -117 -117 -77 -58 -30 10 11 0 -23 26 -7 23 31 -28 -11 -65 -76 -66 -49 -75 -141 -169 -150 -35 -4 -40 -16 -71 -10 -16 36 -231 -1032 -906 145 324 142 158 86 109 30 56 4 -11 14 -13 -24 -98 -97 -147 -188 -205 -242 -273 -254 -210 -205 -133 3 34 63 86 70 92 110 110 85 104 59 62 91 35 70 100 137 61 83 121 81 100 78 33 114 57 40 15 29 82 59 105 81 29 56 66 -63 -32 -68 -52 -74 -51 22 59 94 75 107 102 162 23 -735 -1055 -102 296 117 183 184 126 100 130 140 133 94 71 109 -11 -40 -57 -100 -175 
#avL[uV]
-27260 -24374 -21820 -18885 -16330 -13218 -10928 -7847 -5525 -2272 -93 -90 -137 -92 -49 -111 -51 -47 -59 -17 -53 -41 -20 -34 -21 -19 15 -57 -77 -75 -77 -90 -97 -47 -47 -89 -105 -71 -45 -38 -7 -35 16 81 -46 -4 100 40 10 -43 -26 -36 9 -35 -43 -57 -44 -49 -40 -51 -21 -64 -39 -66 -73 -57 -98 -81 -43 -63 -61 -43 -17 -74 -35 -21 -53 -43 -15 -53 -31 -66 -67 -67 -57 -88 -68 -66 -54 -29 -28 -40 -64 -82 -34 -75 -40 -70 -100 -80 -109 -77 -35 -118 -60 -69 -64 -59 -47 -57 -80 -77 -3 -93 -80 -38 -80 -105 -69 -109 -75 -22 -74 -97 -93 -88 -76 -100 -131 -113 -54 -104 -92 -87 -42 -76 -119 -106 -60 -107 -113 -113 -101 -111 -94 -132 -79 -59 -106 -97 -87 -86 -64 -117 -124 -102 -152 -148 -112 -133 -119 -57 -71 -109 -100 -107 -93 -125 -83 -80 -130 -135 -109 -81 -86 -69 -102 -104 -89 -86 -121 -106 -147 -179 -209 -177 -161 -177 -147 -135 -119 -81 -117 -60 -68 -60 -26 25 18 -22 16 -23 -12 -7 -16 -62 -51 -33 -89 -50 14 -32 -74 -24 -5 -50 -32 -55 -70 17 -34 -73 -192 -90 -159 -166 -166 -162 -119 -181 -135 -149 -162 -176 -106 -116 -174 -143 -152 -125 -107 -139 -131 -132 -157 -104 -141 -156 -175 -177 -156 -142 -128 -135 -85 -137 -133 -155 -126 -170 -142 -133 -159 -157 -130 -148 -143 -108 -141 -137 -124 -137 -88 -109 -145 -194 -120 -127 -133 -132 -89 -102 -132 -101 -87 -118 -93 -59 -89 -98 -148 -163 -118 -105 -93 -102 -96 -101 -114 -105 -120 -120 -149 -127 -102 -69 -182 -99 -154 -114 -128 -78 -101 -114 -94 -126 -71 -97 -108 -78 -105 -71 -79 -95 -61 -60 -91 -78 -85 -70 -82 -69 -86 -94 -87 -57 -96 -85 -101 -76 -100 -57 -105 -65 -88 -97 -89 -73 -72 -77 -109 -41 -122 -101 -77 -6 -56 -34 -95 -57 -42 -42 -84 -65 -113 -49 -142 -156 -140 -137 -37 8 -42 1 -70 34 -25 -36 -79 -46 57 120 -13 69 4 43 -11 14 -59 10 -10 30 -18 -21 0 27 -6 40 11 56 3 10 -5 6 -74 -11 -67 -4 -41 19 -62 9 -26 58 5 -4 -58 16 -6 6 -47 7 -43 -64 -39 25 -7 9 -18 21 -11 17 -36 4 -39 21 -32 22 -34 15 -39 25 -6 -3 -28 -4 -30 40 8 54 -28 11 -35 -6 -66 -24 18 -62 -50 -46 -53 -47 -62 -23 -106 -34 -24 2 -69 22 -90 -25 -13 11 -52 0 -58 33 -75 -60 -90 -29 -88 -47 -122 -26 -105 -3 -110 -19 -77 -40 -116 -35 -89 -20 -104 2 -24 -46 -101 -7 -67 36 -32 1 -36 -1 -80 -21 -52 -31 -111 -13 -113 -28 -102 -62 -52 -24 -6 11 -20 13 -49 -4 -31 -10 -27 -55 30 236 -12 -18 56 3 16 19 -10 2 -16 36 5 51 14 54 58 55 -3 79 27 55 7 45 19 47 1 14 21 25 3 24 42 29 -9 28 -30 18 -18 1 -2 0 -63 -24 -63 -40 -81 -34 -66 -29 -45 -2 -44 -15 -27 -28 -64 -44 -106 -42 -69 -79 -51 -60 -50 -46 -7 -21 -34 -38 -80 -51 -65 -62 -94 -66 -21 -52 -35 -35 -57 -56 -104 -86 -124 -81 -105 -70 -62 -67 -50 -48 -20 -19 -22 0 -45 -28 -51 -55 -54 -79 -69 -77 -56 -72 -49 -82 -53 -59 -76 -62 -72 -61 -58 -59 -42 -46 -27 -27 -33 -13 -19 -20 -31 -33 -27 -36 -34 -38 -50 -54 -58 -43 -65 -59 -68 -76 -75 -58 -62 -24 -22 -2 2 5 4 -7 5 -47 -1 23 6 -152 -222 -143 -189 -170 -192 -194 -201 -193 -178 -179 -163 -175 -149 -159 -140 -134 -127 -131 -87 -128 -100 -138 -121 -137 -174 -117 -167 -128 -164 -143 -146 -160 -166 -182 -162 -180 -183 -168 -177 -158 -157 -147 -155 -127 -117 -130 -112 -112 -113 -127 -109 -130 -127 -132 -132 -131 -124 -138 -127 -129 -127 -128 -120 -128 -114 -118 -94 -103 -85 -99 -94 -88 -95 -93 -111 -100 -116 -114 -60 -185 -127 -96 -146 -97 -87 -111 -113 -114 -109 -114 -98 -113 -99 -92 -87 -84 -97 -100 -111 -107 -114 -136 -128 -150 -165 -138 -157 -131 -152 -117 -120 -123 -113 -121 -129 -116 -116 -124 -127 -121 -120 -104 -114 -98 -107 -92 -93 -87 -94 -86 -89 -96 -99 -95 -123 -101 -124 -108 -104 -111 -131 -108 -113 -103 -104 -84 -82 -58 -68 -46 -65 -57 -64 -39 -98 -79 -42 -82 -87 -65 -105 -92 -83 -102 -122 -86 -113 -71 -93 -51 -65 -56 -62 -49 -54 -48 -54 -56 -59 -59 -80 -66 -102 -76 -98 -73 -84 -67 -77 -80 -75 -69 -68 -74 -54 -71 -74 -67 -66 -48 -62 -31 -58 -36 -51 -46 -43 -54 -45 -51 -72 -66 -78 -65 -59 -53 -51 -49 -18 -26 -27 -16 -37 -38 -27 -63 -4 -15 -17 -4 -20 -10 13 -33 -4 -62 -8 66 46 -84 -158 -89 -104 -73 -66 -54 -88 -54 -67 -39 -43 -36 -53 -39 -58 -52 -36 -60 -49 -75 -61 -87 -86 -97 -100 -95 -124 -96 -88 -95 -91 -90 -84 -85 -74 -87 -88 -89 -69 -81 -72 -55 -77 -57 -62 -65 -39 -73 -54 -65 -79 -67 -107 -78 -99 -94 -103 -100 -77 -97 -56 -60 -53 -41 -70 -32 -75 -36 -76 -44 -75 -66 -28 33 2 -64 -76 -59 -58 -63 -103 -50 -67 -56 -67 -31 -38 -3 -7 -14 -15 -3 16 19 -11 -19 -24 -22 -51 -58 -69 -48 -79 -54 -82 -45 -92 -47 -102 -52 -77 -46 -79 -62 -78 -25 -68 -17 -69 0 -49 -32 -75 -15 -70 -2 -69 -16 -69 -40 -100 0 -94 -9 -54 8 -71 -47 -81 -36 -50 -2 -28 22 -29 0 -13 -19 -16 -58 0 37 -19 -76 -179 -100 -160 -120 -127 -119 -139 -105 -117 -105 -116 -70 -118 -66 -91 -65 -99 -81 -106 -67 -144 -103 -173 -93 -123 -91 -143 -125 -152 -117 -147 -105 -193 -142 -159 -91 -143 -104 -109 -87 -166 -83 -141 -82 -142 -97 -160 -92 -138 -69 -151 -108 -124 -107 -148 -70 -205 -171 -177 -151 -146 -110 -112 -86 -110 -74 -141 -78 -121 -70 -182 -137 -34 -179 -120 -64 -150 -78 -144 -127 -129 -118 -118 -86 -141 -62 -86 -75 -123 -68 -103 -94 -128 -149 -141 -108 -140 -159 -187 -175 -209 -184 -163 -182 -154 -163 -173 -135 -179 -152 -160 -147 -190 -162 -153 -155 -140 -140 -166 -144 -138 -110 -147 -128 -119 -120 -125 -115 -97 -142 -142 -129 -178 -106 -120 -174 -161 -136 -148 -107 -79 -99 -117 -104 -62 -116 -95 -50 -112 -7 -80 -96 -19 -30 -51 -98 -105 -88 -77 -84 -114 -81 -99 -79 -68 -72 -60 -65 -57 -38 -63 -50 -6 -44 -70 -118 -92 -111 -133 -92 -96 -92 -100 -110 -107 -118 -123 -108 -89 -110 -83 -112 -121 -72 -81 -114 -92 -59 -95 -63 -58 -52 -40 -93 -69 -52 -78 -67 -93 -71 -65 -54 -80 -35 -57 -75 -50 -78 -44 -5 -52 -60 -27 -63 -70 -71 -39 -57 9 51 -54 -135 -39 -36 -66 -105 -112 -107 -76 -73 -92 -90 -58 -62 -43 -41 -28 -63 -79 -51 -17 -52 -38 -112 -118 -112 -108 -85 -102 -116 -109 -104 -122 -116 -102 -126 -99 -124 -136 -101 -97 -81 -77 -109 -150 -99 -71 -108 -104 -88 -124 -107 -121 -150 -123 -123 -129 -91 -132 -135 -136 -159 -132 -133 -106 -79 -55 -94 -134 -131 -57 -111 -111 -103 -125 -89 -175 -149 -119 -103 -88 -129 -124 -119 -106 -88 -51 -106 -111 -61 -88 -63 -44 -49 -44 -49 -21 -80 -94 -101 -86 -112 -132 -136 -161 -130 -134 -161 -139 -103 -109 -132 -138 -148 -159 -156 -165 -126 -143 -127 -144 -111 -103 -120 -145 -156 -105 -141 -134 -120 -138 -141 -185 -144 -174 -166 -148 -175 -197 -167 -171 -211 -201 -227 -197 -169 -157 -205 -182 -200 -265 -200 -245 -211 -285 -306 -206 -367 -193 -182 -297 -309 -304 -319 -308 -288 -345 -314 -355 -326 -297 -327 -353 -338 -344 -369 -341 -412 -394 -438 -377 -380 -399 -417 -412 -402 -416 -380 -416 -391 -413 -418 -357 -406 -417 -439 -426 -456 -408 -421 -439 -426 -457 -429 -408 -439 -434 -446 -427 -437 -460 -427 -426 -452 -426 -445 -459 -431 -471 -475 -522 -485 -421 -418 -422 -420 -396 -386 -466 -364 -487 -377 -493 -514 -233 -507 -395 -248 -363 -384 -355 -308 -368 -352 -350 -290 -314 -242 -358 -263 -91 -183 -249 -303 -299 -305 -286 -289 -309 -360 -337 -330 -289 -255 -256 -267 -294 -300 -262 -274 -308 -292 -330 -285 -252 -248 -238 -266 -235 -271 -233 -233 -296 -233 -206 -244 -250 -173 -214 -236 -206 -209 -156 -147 -204 -184 -230 -247 -216 -165 -218 -97 -8 -117 -104 -68 -113 -92 -131 -167 -185 -90 33 -30 -130 -101 -91 -105 -101 -74 -112 -25 -28 -80 -44 -63 -28 -63 -36 2 15 12 -16 27 1 -19 -5 -53 -69 -48 -44 -42 -48 -17 8 18 -8 9 2 9 52 13 27 66 20 53 74 84 86 68 97 132 88 133 116 65 94 98 88 101 75 115 131 159 140 134 148 106 134 113 65 163 159 149 132 128 177 173 175 123 118 120 33 166 129 164 229 212 194 267 246 251 281 273 292 312 265 273 326 271 244 261 243 265 207 263 251 189 146 158 134 169 194 198 251 213 215 226 205 206 205 178 207 232 218 224 193 265 227 257 258 240 227 260 217 205 207 176 198 227 168 173 166 172 185 297 279 261 266 264 298 255 292 253 290 324 88 167 196 187 220 190 186 178 197 199 183 174 176 193 237 200 216 204 205 241 206 200 214 188 133 170 186 161 153 167 183 189 193 187 192 189 152 183 155 137 161 200 205 172 215 259 200 230 221 214 219 220 239 211 161 162 212 211 201 219 202 238 254 186 158 169 150 189 297 259 242 300 296 288 279 223 218 169 247 236 57 11 33 125 121 104 54 86 91 90 102 125 107 105 130 154 146 156 139 104 164 134 94 117 79 72 92 69 65 104 100 78 106 112 47 86 124 26 45 79 48 74 52 90 114 61 111 97 109 83 83 90 86 83 87 110 64 73 86 84 39 16 38 43 91 123 70 94 150 108 118 100 52 26 84 82 11 31 117 98 103 120 90 118 109 85 119 81 101 130 116 124 151 112 102 131 123 80 81 53 36 23 15 49 30 45 65 58 24 35 43 19 63 84 48 55 70 57 64 58 47 24 19 22 39 54 6 59 11 11 60 15 37 71 7 -45 -30 -12 48 128 58 37 82 94 110 53 70 27 110 177 -85 -107 -11 20 26 5 -1 38 33 28 36 28 34 -10 20 29 33 51 64 104 95 70 57 110 87 -14 0 37 11 5 4 24 -11 17 0 14 9 7 25 -16 -26 -44 3 39 0 14 22 54 38 -13 20 32 46 45 5 29 -2 -3 3 14 -26 -21 -19 9 -17 67 104 58 34 19 27 17 44 -25 -48 57 -13 -13 18 99 33 -24 44 48 23 -2 -6 20 28 -6 39 32 33 74 81 
#avF[uV]
49934 44087 39930 34025 29896 24250 19885 14280 9844 3913 -160 -173 -158 -152 -159 -138 -180 -140 -171 -156 -164 -161 -134 -113 -160 -175 -206 -161 -152 -92 -94 -42 -11 -102 -142 -107 -164 -160 -177 -152 -272 -284 -65 639 792 -144 -462 -233 -157 -161 -170 -137 -121 -110 -120 -72 -42 -5 -19 8 -16 68 63 84 114 117 118 88 22 14 -37 -42 -76 -33 -70 -60 -87 -33 -63 -68 -49 -9 -68 -12 -57 -24 -53 -32 -86 -43 -45 -28 -52 -3 -65 -30 -34 -16 -27 16 -12 -13 -19 13 22 39 37 56 22 67 70 75 5 45 33 53 95 120 119 216 129 77 70 47 53 43 26 -37 7 46 485 1043 231 -247 -144 -150 -20 -73 -74 -66 -45 -50 -46 -12 -22 13 -5 24 84 107 106 130 100 117 75 62 49 30 -10 8 33 3 -26 -15 5 -12 -22 55 2 7 34 41 48 44 22 37 63 39 3 57 49 81 111 148 179 185 212 147 153 156 106 52 24 -23 -52 -125 -177 -185 -184 -138 -152 -171 -108 -174 -106 -89 -51 -49 27 -4 -53 -43 -27 -54 -57 -88 -47 -119 -84 135 553 383 -291 -316 -245 -326 -220 -291 -211 -221 -163 -226 -171 -209 -150 -175 -108 -165 -84 -103 -29 -58 -23 -96 -84 -161 -168 -217 -181 -269 -235 -266 -225 -248 -210 -253 -153 -252 -168 -235 -156 -175 -178 -212 -136 -226 -130 -231 -151 -226 -56 -138 -195 -142 -133 -180 -140 -169 -144 -197 -150 -184 -124 -146 -104 -156 -153 -181 -166 -160 -94 -156 -77 -127 -124 -170 -179 -219 -130 -203 -158 -257 -140 -37 529 485 -192 -370 -240 -286 -221 -271 -207 -270 -167 -233 -152 -188 -76 -172 -87 -110 -35 -67 15 -34 33 -87 -4 -106 -80 -169 -129 -200 -201 -212 -226 -256 -202 -238 -198 -259 -146 -241 -156 -174 -138 -259 -180 -268 -199 -281 -228 -264 -229 -263 -195 -261 -187 -228 -156 -214 -191 -231 -196 -210 -131 -125 -69 -105 -52 -189 -130 -227 -125 -230 -160 -181 -184 -188 162 692 381 -273 -215 -264 -150 -243 -158 -260 -216 -238 -214 -209 -198 -210 -157 -211 -121 -165 -3 -38 28 -76 -8 -152 -151 -222 -249 -265 -246 -288 -225 -283 -236 -249 -197 -241 -159 -225 -162 -227 -155 -186 -163 -233 -176 -213 -132 -190 -173 -201 -151 -203 -179 -236 -165 -206 -142 -201 -145 -166 -69 -161 -38 -126 -109 -199 -181 -226 -195 -237 -149 -200 -144 -142 303 552 -57 -237 -173 -241 -185 -239 -156 -207 -181 -196 -117 -165 -33 -115 -9 -56 74 2 129 28 98 47 87 -51 -3 -77 -64 -116 -39 -157 -61 -140 -45 -112 -15 -93 1 -82 14 -80 -49 -81 -32 -99 -84 -118 -49 -135 -57 -112 -13 -100 -51 -111 -56 -116 -68 -104 21 -44 41 -35 9 -96 -64 -133 -122 -161 -83 -150 -52 -95 196 708 243 -121 -56 -158 -68 -194 -131 -161 -140 -163 -112 -135 -75 -102 -31 -73 40 -55 33 -25 48 -40 10 -88 -38 -141 -133 -175 -179 -203 -203 -221 -165 -200 -150 -202 -66 -164 -105 -165 -132 -147 -98 -135 -91 -130 -91 -115 -65 -117 -62 -111 -84 -121 -94 -134 -88 -119 -86 -68 -5 -38 -8 -29 -36 -80 -89 -124 -142 -162 -78 -133 3 -73 174 729 130 -182 -116 -233 -169 -219 -152 -183 -150 -149 -78 -100 -58 -53 -29 -29 3 -1 33 23 54 23 15 -3 -10 -33 -48 -47 -81 -59 -84 -105 -59 -99 -62 -76 -47 -40 -50 -31 -39 -58 -48 -65 -66 -82 -88 -92 -92 -89 -90 -88 -71 -73 -71 -78 -61 -56 -45 -30 -8 -8 -12 -47 -43 -87 -97 -118 -110 -92 -13 -23 107 178 83 -36 -162 -154 -179 -245 -218 -248 -219 -230 -209 -199 -167 -156 -129 -124 -88 -86 -29 -48 -13 -33 -20 -68 -70 -129 -167 -191 -196 -219 -193 -229 -194 -207 -177 -185 -134 -166 -132 -162 -139 -168 -131 -179 -132 -198 -149 -174 -175 -172 -142 -158 -127 -147 -117 -137 -124 -122 -126 -124 -126 -117 -129 -100 -95 -90 -42 -64 -40 -76 -89 -100 -131 -145 -127 -134 -47 -55 84 54 80 220 4 -77 -159 -201 -171 -215 -162 -176 -121 -123 -95 -87 -55 -58 -31 -24 12 1 38 14 39 -7 0 -41 -58 -97 -100 -117 -115 -125 -104 -113 -73 -86 -68 -66 -46 -52 -40 -51 -39 -61 -44 -81 -63 -75 -82 -87 -85 -97 -82 -101 -93 -102 -94 -100 -107 -101 -99 -82 -65 -60 -22 -53 -27 -47 -66 -77 -111 -121 -111 -143 -48 -119 70 -62 113 738 93 -100 -24 -149 -63 -134 -55 -112 -51 -73 -38 -46 -22 -17 21 24 67 63 95 93 91 58 58 -21 0 -70 -45 -117 -90 -127 -82 -122 -104 -106 -90 -99 -87 -95 -65 -102 -68 -114 -71 -129 -73 -140 -107 -120 -98 -116 -118 -115 -96 -114 -84 -109 -89 -100 -90 -96 -86 -102 -76 -93 -64 -71 -63 -47 -64 -96 -112 -123 -140 -142 -128 -101 -23 -72 127 356 103 -173 -281 -245 -279 -301 -273 -308 -253 -272 -231 -244 -194 -210 -181 -175 -131 -127 -67 -92 -49 -78 -44 -95 -72 -141 -124 -171 -185 -182 -177 -182 -183 -171 -151 -146 -125 -131 -94 -116 -91 -112 -113 -124 -96 -130 -118 -121 -110 -122 -108 -140 -128 -146 -160 -153 -165 -129 -113 -101 -45 -71 -16 -73 -82 -116 -129 -166 -152 -196 -122 -167 -16 -128 150 734 95 -191 -144 -196 -103 -168 -81 -145 -94 -112 -101 -99 -66 -92 -48 -47 0 -13 17 -20 40 -7 10 -54 -32 -94 -125 -139 -131 -169 -120 -167 -119 -149 -108 -128 -83 -130 -96 -121 -90 -146 -115 -153 -113 -144 -104 -147 -109 -154 -92 -167 -123 -150 -72 -132 -86 -142 -68 -115 -45 -98 2 -42 -15 -44 33 -111 -72 -166 -122 -139 -92 -107 -38 -112 146 461 194 -266 -362 -307 -293 -322 -349 -328 -301 -312 -303 -275 -247 -249 -185 -198 -165 -159 -81 -125 -67 -138 -61 -152 -127 -201 -218 -218 -228 -213 -220 -219 -158 -223 -158 -190 -165 -202 -160 -186 -166 -200 -120 -199 -193 -203 -162 -188 -168 -193 -156 -211 -107 -177 -155 -174 -152 -188 -122 -118 -102 -109 -13 -140 -186 -191 -201 -197 -166 -175 -52 -152 -26 111 317 236 -187 -207 -206 -206 -180 -171 -167 -144 -129 -139 -92 -140 -103 -86 -31 -44 29 1 132 114 122 106 105 58 53 -35 13 -54 -53 -89 -77 -66 -66 -97 -53 -113 11 -98 -15 -99 -19 -90 -67 -111 -75 -111 -77 -147 -94 -153 -103 -144 -86 -145 -129 -173 -103 -143 -94 -117 -108 -70 -13 -28 35 -19 -73 -126 -115 -156 -86 -149 -62 -216 -76 -101 414 791 -118 -328 -194 -234 -143 -220 -182 -198 -178 -173 -186 -200 -131 -130 -121 -115 -47 -38 -3 -14 -7 -60 -29 -126 -96 -166 -203 -214 -201 -198 -235 -189 -161 -170 -121 -166 -140 -154 -109 -176 -103 -188 -156 -160 -167 -143 -148 -186 -149 -156 -146 -156 -134 -166 -127 -140 -127 -209 -175 -234 -193 -184 -162 -133 -102 -80 -84 -226 -172 -219 -229 -206 -130 -205 -120 -172 206 760 331 -271 -410 -319 -243 -253 -222 -225 -226 -205 -190 -180 -161 -134 -118 -103 -91 -53 -61 -55 -5 -64 -65 -72 -114 -160 -181 -183 -179 -206 -181 -175 -219 -215 -187 -224 -186 -182 -165 -217 -158 -194 -155 -186 -172 -223 -186 -180 -205 -202 -165 -227 -172 -191 -175 -160 -151 -190 -152 -155 -118 -44 -46 -55 -16 -105 -159 -177 -178 -199 -182 -173 -164 -192 -45 319 549 123 -334 -320 -290 -235 -220 -202 -240 -240 -259 -237 -213 -227 -206 -151 -165 -132 -87 -74 -60 -77 -47 -93 -123 -179 -204 -207 -228 -274 -250 -238 -232 -251 -256 -212 -184 -199 -193 -165 -169 -190 -169 -218 -164 -217 -213 -223 -212 -207 -211 -239 -238 -231 -217 -243 -197 -259 -211 -220 -240 -257 -237 -304 -245 -248 -197 -215 -165 -338 -362 -383 -393 -382 -407 -388 -468 -399 -358 41 658 -260 -661 -509 -520 -430 -485 -425 -468 -454 -452 -443 -442 -426 -445 -397 -388 -364 -340 -343 -283 -340 -295 -364 -409 -452 -494 -486 -541 -525 -550 -541 -530 -548 -546 -538 -574 -549 -546 -533 -535 -539 -570 -544 -533 -542 -560 -544 -574 -537 -543 -527 -539 -536 -511 -534 -529 -512 -559 -494 -522 -475 -465 -429 -368 -400 -326 -443 -445 -459 -509 -466 -503 -447 -529 -433 -383 13 646 -196 -610 -519 -586 -433 -480 -448 -446 -418 -438 -457 -371 -461 -288 -442 -721 -431 -400 -364 -304 -353 -286 -364 -344 -349 -388 -370 -412 -420 -418 -383 -402 -375 -401 -369 -359 -318 -314 -294 -262 -271 -274 -254 -261 -269 -258 -288 -264 -313 -306 -289 -268 -291 -294 -254 -224 -255 -276 -247 -236 -276 -277 -202 -191 -193 -102 -184 -287 -283 -284 -291 -250 -254 -226 -270 -209 133 775 460 -319 -321 -253 -189 -189 -187 -183 -200 -166 -124 -116 -80 -39 -21 6 41 70 100 169 167 163 163 104 80 29 -9 -8 -41 -6 -45 -19 -4 -6 0 38 28 -10 29 51 -1 36 -10 4 -6 0 1 9 9 22 16 22 66 56 55 56 47 72 79 97 70 95 110 131 190 211 191 267 198 131 134 70 45 117 12 148 59 143 384 857 1023 150 -113 6 36 97 36 112 74 123 117 137 124 200 164 193 230 287 301 347 345 351 341 292 276 250 224 207 175 214 230 188 207 231 220 267 252 307 296 306 313 291 297 302 299 349 289 301 295 315 298 328 288 315 315 305 312 369 392 416 463 449 373 292 303 287 238 269 191 299 179 310 577 954 988 154 30 161 166 184 193 206 207 220 207 245 253 263 319 347 397 393 384 435 471 416 418 415 370 302 318 293 278 275 247 269 280 270 245 279 261 255 308 305 283 265 281 264 240 256 244 219 207 214 203 242 227 237 228 267 246 241 256 286 274 243 267 324 329 359 400 271 253 258 230 248 182 257 202 212 224 746 1257 408 -177 -103 -47 -14 11 8 22 46 51 47 27 75 98 88 108 164 194 217 244 233 230 205 144 92 72 4 5 20 12 -39 0 5 -21 16 21 22 41 62 52 75 96 77 72 71 81 44 31 31 36 37 44 73 57 65 64 74 63 85 73 155 157 137 203 100 78 62 1 25 -6 25 -34 35 135 775 1207 291 -188 -147 -86 -23 -1 0 4 11 56 60 46 85 90 95 136 175 193 219 262 252 226 211 200 171 129 130 106 91 96 52 55 67 36 53 65 61 45 58 82 54 60 52 18 10 5 -29 -33 -39 -30 -33 -51 -35 -42 -32 -3 27 5 58 94 105 154 120 21 -22 -32 -42 -77 -39 -43 -54 -63 120 854 992 -37 -312 -162 -184 -92 -107 -68 -89 -33 -25 -43 -20 34 78 68 114 136 141 138 177 183 152 94 45 11 -33 -100 -97 -75 -97 -134 -99 -103 -105 -73 -72 -98 -60 -54 -73 -92 -65 -122 -122 -96 -122 -133 -71 -100 -78 -73 -61 -75 -87 -89 -102 -78 -33 -70 -39 85 52 58 70 6 -53 -81 -94 -113 -102 -125 -147 -137 25 677 1069 116 -315 -216 -217 -160 -171 -149 -153 -137 -127 -115 -99 -103 -27 8 24 25 93 
