ADC Sampling rate (Hz):
100
Fragment duration (sec):
21
Number of samples exported by each lead:
2099

#I[uV]
-118 106 -131 92 -108 -183 -122 -139 -105 -133 -92 -73 -76 -66 -63 -68 -65 -66 -58 -69 -66 -66 -57 -59 -71 -67 -54 -52 -66 -57 -63 -73 -58 -64 -50 -59 -62 -59 -58 -51 -63 -63 -60 -62 -53 -41 -55 -54 -48 -50 -39 -26 -48 -31 -34 -19 -35 -20 -14 -11 26 28 60 31 -35 -27 -54 8 -50 -13 -74 -39 535 882 458 -155 -121 -24 -51 -17 -18 -2 7 5 14 19 19 54 49 103 92 147 168 224 266 261 309 261 267 163 111 19 -17 -62 -81 -89 -86 -88 -120 -91 -84 -87 -76 -81 -76 -71 -64 -76 -62 -64 -51 -49 -55 -60 -66 -65 -60 -59 -88 -68 -63 -60 -54 -47 -67 -80 -72 -56 -57 -68 -58 -74 -62 -82 -78 -68 -62 -62 -70 -70 -62 -60 -66 -69 -65 -60 -68 -50 -55 -60 -39 -42 -45 -24 -24 -28 -35 -19 -31 -45 2 0 50 27 -39 -30 -59 -36 -72 -18 -89 -71 446 859 487 -168 -185 -43 -69 -33 -47 -39 -34 -14 -9 3 -6 31 15 65 73 134 148 210 247 265 304 241 266 159 108 0 -21 -55 -99 -106 -98 -96 -106 -89 -109 -94 -92 -109 -107 -90 -90 -85 -80 -74 -84 -91 -76 -75 -64 -94 -89 -86 -84 -71 -76 -70 -72 -91 -67 -81 -85 -103 -96 -83 -78 -84 -74 -87 -62 -80 -72 -78 -72 -77 -75 -68 -62 -63 -55 -53 -48 -49 -18 -26 -21 -15 24 22 6 -55 -51 -36 -60 -37 -47 -83 101 708 820 119 -237 -86 -46 -38 -42 -21 -12 0 5 8 12 47 49 95 66 122 146 201 224 273 286 271 299 181 145 26 13 -48 -70 -87 -91 -98 -93 -94 -101 -99 -100 -100 -103 -74 -78 -81 -74 -66 -85 -58 -55 -61 -60 -62 -59 -50 -67 -72 -67 -65 -64 -58 -46 -56 -64 -46 -52 -46 -64 -59 -53 -69 -66 -67 -77 -59 -60 -59 -66 -65 -54 -58 -60 -42 -45 -37 -39 -35 -29 -15 -24 8 16 44 49 -23 -36 -28 -34 -37 -36 -63 -22 512 903 434 -139 -147 -25 -21 -21 -36 -9 12 13 26 17 41 55 83 65 122 119 196 222 270 302 273 297 210 188 92 37 -42 -76 -72 -69 -81 -84 -74 -92 -94 -74 -83 -86 -77 -57 -68 -57 -76 -58 -60 -42 -53 -44 -55 -63 -50 -51 -62 -76 -62 -61 -74 -55 -43 -56 -65 -75 -52 -56 -56 -58 -54 -56 -46 -58 -62 -58 -69 -49 -51 -47 -39 -37 -39 -39 -36 -32 -38 -7 -9 -9 30 17 28 43 -25 -24 -30 -29 -30 -33 -68 -1 590 937 379 -162 -124 16 -28 -30 -23 -4 -4 14 26 39 63 51 88 104 154 166 227 247 276 312 337 316 232 194 101 32 -30 -66 -75 -86 -84 -86 -99 -101 -85 -92 -77 -76 -83 -73 -69 -69 -67 -56 -66 -88 -69 -62 -76 -64 -60 -67 -82 -68 -69 -65 -51 -56 -73 -87 -66 -64 -47 -66 -65 -69 -75 -62 -63 -66 -60 -74 -72 -70 -50 -51 -47 -61 -62 -48 -50 -42 -3 12 31 18 -47 -39 -65 -57 -75 -51 -76 -34 527 853 299 -253 -199 -73 -48 -42 -19 -11 -11 11 23 37 50 52 85 83 151 151 233 253 304 328 316 337 277 214 112 49 -44 -72 -90 -100 -92 -101 -108 -111 -100 -115 -98 -86 -77 -67 -70 -81 -63 -81 -72 -64 -66 -71 -64 -63 -62 -55 -62 -75 -55 -47 -66 -59 -53 -67 -66 -65 -50 -44 -51 -48 -40 -59 -54 -48 -53 -49 -50 -75 -41 -47 -55 -31 -22 -19 -10 -19 13 31 -17 -41 -37 -62 -19 -59 -66 -69 227 782 751 12 -246 -33 -71 -38 -49 -9 -12 -6 15 27 40 45 84 68 122 137 181 202 261 292 308 318 257 232 124 59 -8 -42 -90 -110 -104 -100 -101 -119 -105 -104 -104 -102 -94 -93 -85 -91 -82 -61 -80 -64 -75 -75 -74 -94 -96 -84 -85 -76 -81 -79 -79 -69 -71 -81 -70 -79 -64 -63 -83 -70 -73 -85 -75 -88 -71 -56 -75 -61 -71 -66 -61 -64 -64 -47 -68 -61 -55 -48 -36 -50 -34 -50 -35 -49 -35 -35 -22 11 10 45 2 -42 -32 -57 -11 -66 -29 -77 61 680 891 186 -248 -57 -41 -24 -31 -20 5 14 15 12 17 32 59 62 123 121 167 189 264 284 314 330 258 250 146 87 9 -40 -92 -92 -88 -102 -93 -124 -124 -113 -96 -84 -86 -93 -81 -91 -84 -72 -61 -60 -54 -71 -74 -71 -67 -67 -68 -84 -102 -82 -70 -73 -72 -71 -79 -76 -84 -69 -83 -64 -63 -68 -79 -74 -69 -70 -58 -58 -59 -57 -57 -70 -55 -53 -53 -57 -56 -57 -51 -39 -43 -45 -55 -55 -38 -54 -40 -42 -49 -32 -33 -26 0 17 41 34 -26 -34 -36 -34 -56 -47 -77 -29 489 862 543 -78 -180 -40 -37 -21 -33 1 -2 0 29 25 50 48 83 78 119 122 188 217 256 301 309 322 258 233 121 60 -35 -50 -62 -63 -88 -93 -89 -88 -68 -88 -117 -100 -88 -73 -90 -78 -61 -55 -62 -70 -68 -70 -68 -74 -75 -68 -83 -91 -77 -83 -84 -78 -79 -74 -82 -81 -82 -87 -86 -94 -80 -74 -66 -92 -69 -65 -64 -60 -58 -55 -74 -52 -42 -70 -61 -52 -37 -49 -41 -47 -39 -41 -34 -22 -25 -25 0 12 33 37 -22 -36 -41 -48 -67 -62 -65 -31 465 867 419 -189 -233 -71 -64 -35 -40 -28 9 14 26 20 53 49 85 132 145 153 200 223 274 312 318 341 265 239 124 73 -2 -62 -88 -75 -76 -81 -90 -108 -95 -101 -80 -80 -70 -57 -69 -53 -71 -71 -50 -61 -58 -66 -63 -90 -66 -49 -66 -60 -64 -80 -64 -57 -60 -64 -53 -50 -64 -50 -54 -72 -84 -80 -80 -77 -67 -48 -54 -57 -44 -31 -34 -49 -71 -40 -32 -29 -36 -18 -5 -11 12 24 32 13 -65 -52 -22 -46 -46 -80 -113 63 705 885 189 -238 -88 -17 -33 -61 -41 4 3 -9 8 9 45 19 88 74 122 120 190 207 273 287 278 277 202 158 49 33 -46 -65 -83 -88 -90 -80 -107 -98 -95 -91 -82 -94 -69 -81 -66 -66 -71 -62 -64 -59 -62 -65 -62 -51 -61 -64 -53 -46 -66 -67 -63 -55 -62 -63 -54 -50 -80 -64 -63 -63 -56 -75 -55 -66 -72 -60 -54 -58 -52 -48 -44 -47 -34 -30 -36 -42 -43 -6 10 21 11 -38 -32 -52 -23 -84 -32 -82 -38 545 906 402 -198 -118 -24 -32 -24 -20 -4 -3 17 4 17 48 70 79 117 122 156 177 242 280 315 327 283 287 190 111 24 -1 -71 -62 -77 -80 -107 -112 -88 -105 -88 -103 -89 -88 -78 -72 -58 -73 -65 -68 -82 -69 -60 -73 -71 -55 -81 -81 -61 -78 -40 -67 -77 -67 -73 -80 -46 -54 -64 -67 -60 -46 -51 -57 -61 -60 -83 -77 -70 -55 -50 -50 -46 -52 -45 -45 -46 -56 -30 -33 0 12 32 41 -22 -50 -44 -50 -66 -55 -95 -49 496 887 511 -124 -176 -17 -51 -51 -32 -17 -1 9 2 10 23 62 78 80 129 151 204 233 289 311 332 315 291 213 121 46 -23 -53 -75 -103 -101 -97 -107 -122 -118 -101 -88 -102 -90 -72 -94 -79 -72 -78 -65 -74 -93 -104 -93 -70 -91 -87 -75 -85 -74 -77 -66 -69 -83 -94 -79 -89 -82 -85 -79 -107 -70 -72 -72 -67 -70 -82 -85 -74 -58 -61 -75 -63 -56 -51 -67 -45 -53 -40 -43 -18 1 17 10 -8 -47 -59 -43 -78 -62 -74 -83 220 782 768 4 -266 -70 -32 -33 -45 -43 -21 1 15 28 33 58 63 90 112 163 183 238 264 334 346 337 307 252 159 78 12 -53 -79 -106 -113 -105 -105 -104 -104 -140 -119 -106 -115 -92 -93 -88 -80 -83 -91 -57 -84 -87 -77 -106 -69 -59 -76 -62 -84 -72 -83 -66 -66 -65 -84 -84 -92 -86 -75 -64 -55 -84 -85 -56 -77 -62 -57 -50 -71 -62 -30 -30 -44 -14 -5 6 31 -36 -70 -57 -46 -75 -71 -39 -40 499 851 330 -222 -239 -63 -38 -32 -17 -3 13 32 44 41 62 71 88 120 159 189 245 289 316 344 360 364 329 246 141 66 -6 -53 -86 -89 -120 -104 -111 -118 -116 -103 -101 -104 -94 -83 -97 -103 -105 -88 -76 -78 -76 -76 -66 -54 -70 -103 -90 -77 -71 -65 -67 -65 -54 -67 -80 -78 -61 -55 -53 -50 -55 -55 -54 -74 -44 -30 -52 12 54 6 -8 -51 -56 -68 -74 -87 -54 -86 -59 383 818 576 -129 -198 -25 -44 -34 -28 -24 10 25 13 25 19 58 88 120 126 165 196 252 294 342 345 324 302 224 129 87 -26 -41 -63 -81 -94 -120 -109 -103 -98 -83 -112 -91 -97 -105 -72 -54 -49 -70 -52 -61 -59 -58 -71 -65 -63 -100 -75 -72 -71 -70 -78 -83 -69 -61 -51 -85 -59 -60 -77 -66 -65 -56 -75 -67 -55 -72 -55 -46 -49 -36 -23 -16 -36 -3 45 26 15 -39 -83 -64 -58 -39 -56 -82 -84 124 738 906 147 -239 -71 -20 -33 -37 11 -4 10 15 29 44 44 65 109 122 155 212 247 317 337 347 366 351 284 195 112 18 -21 -66 -89 -87 -92 -80 -85 -91 -80 -102 -80 -75 -70 -60 -55 -45 -47 -78 -63 -67 -63 -47 -50 -53 -55 -47 -54 -53 -64 -37 -51 -81 -64 -48 -71 -46 -56 -42 -52 -76 -66 -64 -43 -42 -62 -44 -41 -38 -44 -35 -33 -36 -32 -50 -40 -35 -25 -25 -22 -44 -33 -16 -34 -28 -13 -3 -15 -17 -16 7 71 71 31 -4 -24 -10 -35 -26 -27 -10 -54 143 743 899 176 -191 -36 -16 -27 -28 3 15 10 17 22 38 66 99 95 146 177 205 267 312 346 387 379 358 307 230 136 40 -8 -46 -67 -72 -93 -96 -91 -93 -98 -72 -101 -109 -79 -57 -47 -65 -64 -53 -51 -55 -54 -53 -81 -83 -62 -60 -65 -54 -60 -66 -59 -47 -66 -85 -85 -72 -56 -50 -50 -58 -59 -60 -64 -55 -45 -60 -40 -27 -64 -43 -38 -36 -35 -40 -41 -25 -21 -29 -25 -14 -15 -14 -11 -10 -8 -11 -11 -8 30 54 75 18 -24 -42 -31 -35 -25 -28 -63 184 793 841 87 -247 -46 -26 -23 0 -24 -10 17 15 46 48 63 93 126 144 179 230 261 308 342 369 392 382 314 234 145 54 -29 -78 -77 -79 -88 -81 -93 -99 -106 -82 -83 -79 -77 -93 -71 -68 -56 -69 -59 -58 -59 -66 -59 -55 -91 -69 -57 -74 -77 -96 -81 -59 -82 -90 -66 -59 -61 -83 -63 -48 -83 -66 -68 -73 -50 -41 -50 -76 -75 -25 -38 -40 -38 -35 -34 -16 -16 -31 -18 16 35 58 3 -46 -39 -35 -38 -56 -24 -76 -4 622 899 335 -198 -122 -28 -48 -41 -30 -177 5 4 5 20 34 59 94 106 156 185 238 269 321 370 372 372 323 227 122 62 -6 -44 -85 -83 -77 -102 -79 -104 -115 -99 -108 -106 -100 -72 -70 -81 -65 -80 -66 -56 -57 -69 -65 -64 -59 -61 -59 -59 -61 -61 -56 -71 -82 -73 -56 -64 -63 -68 -67 -69 -49 -51 -77 -51 -41 -50 -59 -79 -44 -47 -49 -38 
#II[uV]
8195 8282 6469 6558 4859 4911 3211 3268 1578 1698 -38 -44 -43 -38 -54 -60 -87 -96 -110 -126 -124 -137 -139 -143 -158 -156 -134 -110 -110 -93 -85 -88 -65 -61 -49 -42 -46 -37 -38 -38 -39 -38 -43 -37 -28 -18 -40 -108 -92 -53 -51 -2 -63 -41 -74 -59 -90 -137 -108 -46 -11 -17 -7 -72 -146 -124 -150 -101 -132 -134 -130 -155 215 482 131 -94 -61 -200 -170 -72 -69 -30 -6 -31 -20 -20 7 77 72 136 146 214 238 301 353 311 364 359 377 260 170 63 40 6 -26 -60 -81 -86 -158 -171 -140 -120 -145 -160 -142 -117 -136 -193 -167 -157 -136 -131 -156 -177 -154 -139 -136 -136 -194 -181 -142 -139 -111 -86 -86 -139 -96 -63 -61 -35 -37 -66 -67 -107 -92 -31 -39 -31 -16 -19 -26 -8 -55 -29 -20 -24 -49 9 -42 -84 -43 -52 -75 -46 -69 -69 -78 -67 -103 -145 -57 -30 -36 -56 -118 -118 -173 -177 -154 -127 -165 -204 130 427 153 -47 5 -61 -48 5 -7 30 37 74 90 117 94 144 97 124 128 181 237 326 369 389 396 355 423 325 209 42 -4 -6 -72 -136 -113 -97 -127 -88 -140 -104 -112 -168 -174 -179 -145 -117 -142 -106 -129 -137 -125 -131 -127 -197 -171 -109 -83 -64 -70 -47 -38 -29 -10 -23 -66 -101 -63 -38 -15 -25 3 2 24 13 -17 -43 -2 11 0 14 13 -13 -25 -35 -34 -42 -18 -23 -46 -49 -35 -11 -39 -101 -114 -120 -155 -117 -130 -117 -67 432 439 -58 -63 -72 -82 -45 -50 -5 -15 30 36 57 72 107 105 162 91 131 204 286 307 361 354 369 410 310 284 145 157 82 36 -3 -37 -43 -73 -73 -89 -75 -92 -163 -150 -87 -145 -151 -138 -121 -172 -138 -128 -123 -131 -121 -117 -112 -172 -176 -176 -145 -94 -68 -57 -35 -59 -30 -39 -24 -46 13 -11 -47 -49 -40 -63 -26 8 9 -28 -8 -4 4 0 16 25 23 -4 -7 -42 -59 -66 -22 -7 -14 -22 -63 -115 -90 -112 -67 -97 -60 -42 280 571 211 40 20 -16 32 -8 -42 -23 63 76 102 86 123 137 140 124 167 178 299 328 384 412 395 427 394 336 253 160 10 -27 4 4 -20 -82 -88 -81 -72 -84 -71 -103 -95 -89 -136 -161 -193 -158 -123 -119 -142 -137 -141 -147 -153 -157 -193 -230 -222 -181 -160 -140 -84 -81 -110 -85 -47 -38 -29 5 36 22 34 -1 -8 7 -15 -4 12 1 15 13 6 6 -6 -45 8 -14 -13 2 35 -40 -82 -54 -108 -133 -146 -168 -160 -185 -113 -136 251 480 66 -56 -71 -97 -84 -155 -163 -170 -145 -91 -45 -32 19 3 31 80 156 167 259 274 271 310 403 374 262 256 164 81 30 -30 -22 -51 -79 -76 -102 -98 -66 -101 -85 -103 -152 -142 -104 -120 -132 -131 -127 -195 -193 -155 -156 -170 -144 -162 -217 -179 -176 -187 -147 -166 -229 -236 -183 -154 -98 -116 -85 -89 -78 -65 -32 -48 -72 -78 -90 -68 -21 -24 -7 -24 -23 -33 19 54 107 110 100 70 -2 -58 -108 -168 -153 -138 -74 -111 187 434 19 -94 -47 -123 -97 -114 -94 -86 -82 -118 -74 -55 -84 -65 -46 -37 68 81 186 215 277 281 262 364 331 280 183 79 -34 -46 -92 -89 -43 -64 -93 -61 -40 -84 -27 -20 0 4 -60 -106 -31 -88 -105 -83 -94 -112 -104 -115 -109 -124 -178 -218 -148 -131 -151 -153 -139 -203 -204 -210 -142 -154 -137 -140 -127 -156 -120 -83 -72 -67 -101 -95 -35 -46 -14 -14 8 36 52 3 -4 13 19 -34 -6 -52 23 -46 -37 -16 100 556 386 47 20 -72 -122 -101 -98 -70 -42 -60 -39 -29 -15 -4 33 -17 5 40 165 178 211 254 256 282 258 236 148 80 17 -27 -122 -139 -99 -84 -86 -90 -66 -65 -48 -43 -37 -21 -31 -93 -40 -18 -29 -6 -13 -14 7 -77 -129 -124 -141 -91 -100 -124 -161 -167 -122 -132 -116 -135 -127 -127 -168 -185 -188 -201 -186 -207 -149 -147 -164 -179 -158 -148 -138 -85 -72 -87 -96 -78 -35 -28 10 -37 12 -15 10 -37 -57 -14 53 86 77 81 61 19 48 0 60 -3 42 22 -50 414 416 67 10 -18 -29 -22 -42 -27 -8 -17 0 -47 -89 -14 24 24 105 92 110 130 244 265 325 352 336 318 214 147 85 7 -106 -62 -36 -51 -40 -83 -106 -86 -26 -26 -7 -18 6 -42 -46 -1 13 2 3 -27 -51 -62 -59 -73 -67 -157 -196 -131 -132 -122 -124 -192 -159 -154 -184 -156 -136 -133 -158 -160 -158 -152 -134 -121 -77 -53 -17 -6 -34 -34 4 17 25 28 41 54 72 71 88 57 14 21 52 53 78 87 84 85 119 137 177 149 131 107 30 4 13 -25 -14 -47 -29 -17 268 518 280 33 -65 -68 -8 -23 -53 -41 -37 -54 5 -9 14 29 88 72 124 132 210 288 348 371 412 417 323 324 251 125 14 1 -1 -12 -37 -45 -32 -43 0 -35 -117 -103 -99 -137 -162 -90 -65 -88 -74 -151 -143 -134 -116 -126 -128 -134 -184 -195 -193 -185 -152 -184 -166 -145 -161 -158 -150 -165 -172 -170 -94 -77 -66 -134 -107 -65 -21 -18 -14 -43 -61 -7 13 -58 -65 -2 7 -4 16 0 17 24 18 -48 -14 -4 20 31 2 1 -56 -128 -116 -137 -102 -126 -60 -90 174 535 207 -7 3 -48 -49 -76 -73 -77 -27 14 44 49 87 81 121 202 236 146 186 224 298 335 397 422 344 334 242 177 104 -13 -72 -13 2 -10 -3 -86 -128 -88 -71 -95 -54 -74 -163 -119 -147 -172 -103 -113 -130 -125 -132 -209 -146 -134 -148 -147 -201 -222 -135 -135 -134 -140 -109 -90 -67 -48 -32 -125 -142 -91 -103 -104 -28 -18 -28 -18 -8 3 13 -49 -66 -9 13 10 21 19 63 105 125 13 -9 -32 -160 -113 -64 -90 -72 -195 -151 -107 420 447 27 -40 -58 -56 -52 -169 -149 -48 -24 -84 -42 -18 26 39 149 156 227 236 337 361 463 474 456 462 401 341 231 231 151 110 86 64 65 58 -19 -27 -17 25 49 15 24 -45 -23 -23 -74 -74 -76 -92 -53 -71 -91 -81 -86 -105 -86 -155 -158 -113 -92 -98 -103 -113 -80 -103 -163 -172 -127 -73 -7 -45 -58 -55 -46 -17 2 -11 20 6 33 19 48 41 -25 6 94 84 107 86 62 12 -20 11 21 -44 -26 -41 -58 303 570 111 -85 9 -25 -31 -37 -110 -98 -33 -5 -17 -4 5 45 50 113 56 70 115 195 293 353 390 373 383 298 153 118 47 5 -16 8 -30 -87 -112 -2 -45 -18 -65 -14 -13 14 14 43 17 -31 -65 -79 -81 -42 -69 -63 -75 -148 -158 -81 -119 -69 -107 -147 -108 -110 -128 -97 -103 -94 -158 -124 -110 -86 -109 -144 -139 -144 -117 -96 -36 -6 -36 0 -22 13 13 39 -9 2 34 67 115 114 86 51 16 51 7 -9 -55 -10 -1 333 622 238 1 35 -4 -3 -37 4 -8 44 33 -16 -43 -21 49 105 39 84 140 218 237 267 306 314 300 368 266 163 95 14 10 -8 -48 -27 -43 2 -39 -64 -64 5 0 23 9 -25 18 45 27 60 33 -13 -58 -45 -7 -79 -67 -44 -122 -63 -89 -63 -90 -148 -152 -103 -161 -162 -127 -95 -145 -75 -81 -61 -47 -81 -108 -78 -111 -23 -67 -58 -5 30 12 4 20 34 68 121 143 192 173 141 167 120 28 91 78 76 100 115 208 644 524 199 121 107 112 90 11 1 21 54 53 55 51 85 32 52 79 193 190 199 235 333 291 319 301 228 172 91 -12 -36 -60 -81 -81 -64 -53 -12 -24 -94 -85 -35 -74 -51 -7 -6 -8 5 -42 17 -23 -48 -55 -73 -3 4 -10 -20 -72 -57 -79 -72 -87 -75 -160 -190 -173 -158 -125 -77 -104 -170 -166 -116 -150 -109 -135 -94 -151 -166 -99 -64 -54 0 -49 -76 -20 -37 -141 -87 -83 -76 -80 11 -24 274 567 213 24 31 -19 62 39 53 54 76 97 132 129 110 112 82 86 159 160 227 256 297 248 266 319 312 219 83 16 -16 -108 -115 -139 -208 -202 -170 -179 -177 -174 -160 -142 -89 -89 -135 -164 -149 -85 -61 -78 -55 -74 -47 -24 -28 -100 -97 -82 -84 -83 -25 -26 6 -26 -54 -59 -40 -35 -34 -72 -52 -77 -94 -148 -85 -48 -82 -27 8 -90 -68 -126 -184 -188 -233 -208 -160 -133 -130 25 436 184 -114 -36 -35 -33 -36 -16 -10 36 50 -16 9 27 56 139 184 179 227 227 336 392 429 413 389 374 341 229 169 3 11 -62 -41 -84 -146 -165 -175 -148 -90 -189 -177 -170 -191 -139 -96 -107 -143 -112 -121 -136 -118 -161 -133 -132 -222 -184 -122 -117 -103 -147 -105 -80 -52 -52 -107 -39 -15 -114 -69 -50 0 -39 -3 -34 -71 -17 8 -7 37 48 93 1 -3 6 -31 -32 -62 -180 -157 -145 -66 -155 -185 -147 -62 410 425 -52 -79 -72 -53 -106 -71 -49 -60 -35 -37 -31 14 -24 16 111 102 146 230 301 390 360 414 470 474 396 306 203 64 13 13 -79 -54 -80 -20 -35 -43 -35 -93 -45 -36 -62 -36 -84 -45 -72 -144 -152 -151 -161 -102 -116 -113 -129 -119 -151 -134 -147 -103 -128 -190 -151 -124 -196 -125 -124 -73 -81 -108 -100 -90 -36 2 -64 0 -20 9 -14 29 14 20 2 -55 -10 28 25 52 31 -3 32 66 0 -3 25 24 13 5 -7 10 34 23 -5 -3 -59 -46 -100 -75 -87 -22 -38 -22 432 441 73 70 7 -25 -51 -44 34 70 27 42 54 83 111 166 162 220 266 306 367 433 457 498 465 454 425 344 249 131 81 54 9 7 -73 -78 -98 -100 -97 -74 -138 -135 -122 -67 -86 -119 -130 -98 -95 -95 -112 -101 -163 -168 -154 -159 -153 -111 -141 -133 -126 -69 -100 -148 -111 -93 -53 -28 -39 -25 -55 -39 -64 -50 -14 -29 12 36 -35 -8 1 2 14 32 43 59 60 38 68 29 8 31 5 19 6 11 14 0 55 75 37 3 -76 -145 -156 -101 -111 -114 -138 -42 458 370 -2 25 4 -31 14 38 -42 0 19 31 65 104 102 134 167 210 216 300 290 327 377 417 432 470 416 346 232 116 0 -105 -111 -97 -120 -127 -156 -196 -211 -158 -159 -140 -162 -214 -175 -153 -131 -144 -147 -134 -156 -153 -160 -153 -199 -164 -129 -173 -173 -165 -149 -73 -122 -148 -91 -62 -66 -100 -57 -29 -103 -74 -73 -78 -32 -1 -8 -37 -50 10 -3 -8 -30 -37 -58 -48 -48 -69 -64 -33 -32 -31 -100 -181 -186 -137 -153 -131 -141 -118 -128 312 510 55 -112 -65 -112 -140 -136 -64 -73 -8 -9 -1 10 44 107 146 180 237 265 336 334 380 473 504 490 464 321 180 96 83 8 -44 -58 -62 -86 -83 -147 -154 -138 -165 -152 -149 -124 -108 -118 -108 -158 -147 -115 -132 -132 -137 -136 -139 -141 -135 -135 -137 -137 -135 -148 -165 -115 -55 -51 -38 -53 -59 -55 -10 -23 -49 -17 20 0 -37 -46 18 -5 16 26 
#III[uV]
8313 8176 6600 6466 4967 5094 3333 3407 1683 1831 54 29 32 27 8 8 -22 -30 -51 -56 -58 -70 -82 -83 -87 -89 -80 -57 -43 -35 -21 -15 -6 3 1 16 16 22 19 13 23 25 17 25 25 23 15 -53 -44 -2 -12 24 -14 -9 -39 -39 -55 -117 -93 -34 -38 -46 -68 -104 -111 -96 -96 -110 -82 -121 -55 -115 -320 -399 -327 61 59 -176 -119 -55 -51 -28 -13 -36 -34 -40 -12 23 23 32 53 67 70 76 87 50 55 97 110 96 58 43 57 68 55 28 5 1 -37 -80 -55 -32 -68 -78 -65 -45 -72 -116 -104 -92 -85 -82 -100 -116 -88 -74 -75 -76 -106 -113 -79 -79 -57 -38 -19 -58 -24 -7 -3 32 21 8 -4 -24 -13 36 23 30 53 50 36 52 10 40 45 35 19 59 12 -23 -3 -10 -29 -21 -44 -40 -43 -48 -72 -100 -60 -31 -87 -83 -78 -88 -114 -141 -82 -109 -75 -132 -316 -431 -333 120 191 -17 20 38 40 69 71 88 100 114 101 113 81 58 55 47 89 116 122 123 91 114 156 166 100 43 16 48 27 -30 -15 -1 -20 1 -30 -9 -19 -59 -67 -89 -55 -32 -62 -31 -45 -45 -48 -55 -63 -103 -82 -22 1 6 6 22 33 62 57 57 18 2 33 44 62 59 78 90 86 94 55 34 70 89 76 83 75 49 30 17 14 6 0 2 -24 -33 -59 -34 -45 -45 -63 -84 -95 -80 -83 -34 -169 -275 -381 -177 174 14 -36 -6 -8 16 -3 30 31 49 60 60 56 66 24 8 57 84 83 88 67 98 110 128 139 118 143 130 107 84 54 54 20 21 12 23 8 -63 -47 -12 -67 -69 -63 -55 -86 -79 -73 -62 -70 -58 -57 -62 -104 -103 -109 -80 -30 -10 -10 21 5 15 13 21 18 73 41 22 17 26 14 32 69 68 38 57 49 63 60 58 70 61 35 27 -12 -44 -41 -30 -23 -59 -71 -39 -78 -61 -78 -29 -61 3 -20 -232 -332 -222 180 167 9 54 13 -5 -13 50 62 75 68 81 82 57 59 44 58 103 106 114 109 122 129 183 147 161 122 52 49 77 73 61 1 -14 10 22 -10 12 -17 -17 -31 -68 -103 -116 -100 -63 -77 -88 -93 -86 -83 -102 -106 -130 -154 -159 -119 -85 -85 -40 -24 -45 -10 4 17 26 64 91 78 81 56 53 66 54 45 64 48 55 51 46 46 29 -12 47 -6 -3 12 4 -58 -111 -98 -83 -109 -116 -138 -130 -152 -44 -134 -339 -457 -313 105 53 -113 -55 -124 -140 -165 -140 -105 -71 -71 -44 -47 -56 -23 1 1 32 27 -5 -2 65 57 29 61 63 49 61 36 52 34 4 10 -2 3 18 -8 -8 -26 -69 -69 -34 -50 -64 -74 -61 -107 -124 -92 -80 -105 -83 -95 -134 -110 -107 -121 -95 -109 -155 -148 -116 -90 -51 -49 -19 -19 -2 -2 30 18 -12 -3 -18 1 29 27 40 37 38 15 70 97 111 98 68 52 44 -18 -42 -110 -78 -86 2 -76 -339 -418 -279 158 152 -50 -48 -71 -74 -74 -70 -129 -97 -92 -134 -117 -132 -121 -83 -70 -46 -38 -26 -46 -54 26 54 66 71 29 10 25 -2 11 48 36 14 50 59 31 70 65 77 71 10 -24 32 -7 -32 -18 -27 -40 -39 -51 -46 -69 -116 -142 -92 -84 -84 -94 -86 -135 -138 -145 -91 -109 -85 -92 -87 -96 -66 -34 -19 -18 -50 -20 6 1 40 16 31 55 63 23 -18 -17 36 7 31 10 43 13 29 52 -126 -225 -364 35 267 -39 -51 -63 -49 -60 -30 -53 -54 -57 -55 -49 -50 -86 -116 -96 -15 -23 -49 -38 -51 -36 0 4 23 20 26 14 -31 -29 4 15 15 29 39 38 55 58 57 71 53 -1 42 43 50 58 62 60 81 16 -32 -39 -56 -14 -18 -44 -82 -97 -50 -50 -46 -55 -63 -63 -84 -115 -114 -116 -110 -119 -78 -91 -88 -118 -87 -81 -77 -20 -8 -40 -28 -16 20 20 46 12 47 34 46 11 -22 20 76 75 66 36 58 61 80 56 72 62 72 100 -112 -266 -474 -118 258 39 12 1 -11 -6 -14 -32 -16 -59 -107 -47 -34 -37 -18 -29 -57 -59 -19 -19 11 21 78 67 68 60 75 48 -14 29 51 50 52 40 18 27 70 57 79 75 88 48 37 70 75 63 58 43 22 8 8 -5 1 -72 -93 -49 -61 -49 -51 -120 -80 -77 -100 -87 -53 -68 -94 -91 -79 -78 -65 -50 -19 4 42 50 23 35 60 71 79 85 98 111 123 110 131 103 69 76 91 107 119 129 134 118 152 164 177 132 90 73 56 38 50 8 41 0 48 11 -220 -344 -263 112 114 -28 28 -1 -19 -42 -35 -54 -24 -35 -35 -19 4 -6 5 10 22 70 92 69 103 94 64 90 130 65 50 52 61 51 51 48 57 44 67 52 0 -3 -11 -64 -71 -12 -4 -33 -11 -81 -74 -64 -47 -52 -52 -66 -100 -104 -116 -102 -67 -106 -87 -70 -79 -77 -68 -78 -86 -76 -14 -3 0 -42 -37 0 43 42 44 12 12 45 55 11 -4 50 45 45 58 47 57 65 52 -25 11 21 19 18 -30 -35 -34 -91 -74 -89 -35 -64 4 -58 -291 -331 -211 181 236 23 14 -40 -32 -48 -36 0 17 29 33 31 36 70 91 -6 -14 0 24 22 78 81 79 95 117 103 106 49 15 61 79 70 87 22 -33 12 9 -14 16 -17 -94 -66 -75 -101 -52 -51 -72 -59 -69 -118 -80 -84 -81 -86 -136 -141 -70 -78 -74 -76 -56 -39 -2 2 21 -53 -57 -11 -22 -26 39 29 25 39 35 34 47 0 5 31 45 40 58 37 68 116 113 -11 -42 -45 -94 -60 -42 -43 -25 -115 -38 -171 -285 -438 -161 198 30 -38 -18 -107 -108 -52 -28 -75 -50 -28 -18 19 60 82 105 115 147 153 189 187 178 185 199 183 181 197 197 175 170 153 156 139 87 70 78 117 132 109 93 36 43 43 -2 -12 -11 -32 8 -5 -29 -29 -25 -41 -32 -108 -91 -45 -29 -43 -40 -49 -25 -53 -82 -108 -64 -9 48 30 -3 11 26 43 57 46 73 55 78 66 83 72 11 49 137 91 97 65 50 50 11 63 45 40 6 41 -19 -241 -335 -291 112 128 0 0 -12 -90 -93 -30 -22 -22 -22 -42 -24 -29 -4 -66 -86 -61 -47 13 38 63 89 96 107 41 93 49 76 46 86 49 19 0 85 59 69 38 75 74 93 86 102 91 34 3 2 -12 18 3 8 -20 -67 -76 -20 -41 -29 -40 -70 -41 -37 -47 -51 -49 -30 -90 -64 -64 -35 -51 -83 -78 -61 -40 -25 18 43 14 47 29 59 59 86 47 33 67 67 103 81 44 74 66 96 57 57 0 84 47 -163 -264 -272 126 211 13 47 14 36 8 46 24 -19 -54 -45 -12 26 -41 -44 -11 13 3 -21 -4 -18 -14 77 53 42 49 37 63 66 55 74 53 110 83 53 36 93 103 114 82 69 97 117 105 126 107 79 46 48 63 12 19 30 -36 11 -11 3 -20 -65 -58 -24 -71 -79 -41 -15 -37 -4 -8 10 19 -11 -26 7 -36 34 -5 17 58 86 64 71 65 88 109 165 162 191 155 130 175 168 88 134 156 139 174 198 -11 -138 -243 195 388 177 144 123 57 45 42 52 37 27 18 27 -31 -37 -32 30 6 -38 -29 0 -54 -17 -6 -23 13 13 -25 16 18 25 32 40 52 92 79 45 34 70 41 41 85 81 71 88 48 75 61 39 22 32 65 64 65 41 12 15 3 -5 -21 -9 -75 -105 -81 -71 -49 -13 -49 -86 -80 -60 -73 -47 -77 -44 -80 -103 -68 -34 -10 14 -44 -82 -52 -1 -71 -30 -37 0 -8 50 16 -224 -283 -116 247 270 44 101 72 71 58 63 64 88 88 47 40 -6 -34 0 -28 -18 -33 -18 -95 -94 -45 -17 -27 -57 -50 -10 -54 -29 -50 -88 -98 -58 -60 -61 -70 -59 -38 4 -6 -37 -60 -44 2 15 0 20 1 18 29 42 2 -6 -4 -13 -18 42 38 61 41 26 18 20 19 19 -22 2 -22 -39 -74 -40 -17 -29 -40 -46 -96 -59 -74 -127 -120 -158 -120 -106 -47 -70 -358 -382 -391 15 161 -9 10 -1 12 13 25 25 -30 -15 7 -2 51 63 53 61 30 84 97 86 68 64 72 117 99 82 30 52 1 39 9 -25 -56 -72 -49 -6 -77 -85 -73 -86 -67 -42 -57 -72 -59 -59 -76 -60 -89 -67 -68 -121 -109 -49 -46 -33 -68 -21 -11 8 -1 -21 19 45 -37 -3 15 56 35 64 21 0 37 55 42 73 72 110 38 0 -38 -58 -48 -23 -97 -92 -87 -26 -98 -103 -63 -187 -328 -481 -199 160 -1 -32 -73 -34 -61 -56 -45 -52 -60 -29 -69 -48 2 -19 -9 18 53 73 22 66 103 122 111 111 90 46 35 79 9 32 11 60 50 48 45 9 35 38 8 23 -28 0 -24 -65 -88 -84 -97 -54 -65 -60 -73 -71 -97 -80 -82 -65 -76 -108 -86 -75 -124 -78 -68 -31 -28 -31 -33 -25 7 44 -1 45 21 48 30 64 47 56 34 -5 30 64 50 78 54 40 66 82 33 24 38 28 28 23 9 3 -36 -47 -36 0 -35 -35 -64 -48 -59 -11 15 -165 -311 -458 -102 262 43 -8 -23 -15 31 54 17 24 32 45 45 67 67 73 89 101 100 120 110 111 86 96 118 113 112 91 90 101 77 79 20 18 -7 -7 1 -1 -37 -25 -43 -10 -39 -53 -66 -44 -44 -39 -57 -48 -82 -85 -91 -99 -87 -56 -80 -66 -67 -21 -33 -63 -25 -20 2 22 11 33 4 21 0 4 30 30 52 64 28 35 39 39 49 72 84 85 81 68 93 43 24 45 16 30 14 23 26 8 25 21 -37 -15 -51 -102 -125 -65 -86 -85 -75 -227 -334 -470 -90 273 50 -4 37 38 -18 11 2 16 18 56 38 41 41 65 37 69 28 18 35 48 39 88 101 112 87 61 29 -26 -33 -18 -32 -45 -62 -96 -105 -75 -75 -60 -85 -121 -103 -85 -74 -74 -88 -75 -97 -87 -100 -97 -108 -94 -72 -98 -95 -69 -68 -14 -40 -58 -24 -3 -4 -16 6 18 -19 -8 -5 -5 18 40 42 39 24 36 35 31 8 -2 -24 -32 -32 -38 -45 -49 -68 -89 -103 -134 -146 -101 -114 -75 -117 -42 -123 -309 -389 -280 85 57 -84 -91 -95 -34 104 -13 -13 -6 -10 10 48 51 74 81 80 97 65 58 103 131 118 141 93 58 33 89 52 41 25 15 15 -3 -42 -38 -38 -57 -46 -48 -51 -37 -37 -42 -77 -80 -58 -75 -63 -71 -71 -79 -80 -76 -76 -75 -75 -78 -77 -83 -42 1 12 25 14 8 13 38 28 28 34 61 50 21 33 63 41 65 65 
#avR[uV]
-4038 -4194 -3168 -3325 -2375 -2364 -1544 -1564 -736 -782 65 58 59 52 58 64 76 81 84 97 95 102 98 101 114 112 94 81 88 75 74 80 62 63 49 50 54 48 48 45 51 50 51 50 41 29 47 81 70 51 45 14 55 36 54 39 62 79 61 28 -7 -5 -26 20 90 75 102 46 91 73 102 97 -375 -682 -294 125 91 112 111 44 44 16 0 12 3 0 -13 -66 -60 -120 -119 -180 -203 -263 -309 -286 -337 -310 -322 -211 -140 -41 -11 27 53 74 83 87 139 131 112 103 110 121 109 94 100 134 114 110 94 90 105 118 110 102 98 97 141 124 103 100 82 67 77 109 84 59 59 52 48 70 64 95 85 50 51 46 43 45 44 34 61 49 42 42 58 20 49 72 41 47 60 35 46 49 56 43 67 95 27 14 -7 14 79 74 116 106 113 72 127 137 -288 -643 -320 107 90 52 59 14 27 4 -1 -29 -40 -60 -43 -87 -56 -94 -100 -158 -193 -268 -308 -327 -350 -298 -344 -242 -159 -20 12 30 86 121 105 96 116 89 125 99 102 139 140 134 118 101 111 90 106 114 100 103 96 145 130 98 84 68 73 58 55 60 38 52 76 102 79 61 47 54 35 42 19 33 45 61 37 32 37 26 24 38 40 44 41 45 18 24 33 32 5 -5 16 78 83 78 107 77 89 100 -17 -570 -629 -30 150 79 64 41 46 13 13 -15 -20 -32 -42 -77 -77 -128 -79 -127 -175 -244 -265 -317 -320 -320 -354 -246 -215 -86 -85 -17 16 45 64 70 83 83 95 87 96 131 126 80 112 116 106 94 128 98 91 92 95 91 88 81 120 124 121 105 79 63 51 46 62 38 46 35 55 22 32 58 58 54 70 42 25 24 47 36 29 26 30 13 10 7 22 21 36 37 45 6 -4 -15 -13 43 75 59 73 52 66 62 32 -396 -737 -323 49 63 21 -5 14 39 16 -38 -44 -64 -51 -82 -96 -112 -94 -145 -148 -247 -275 -327 -357 -334 -362 -302 -262 -173 -99 15 51 34 32 51 83 81 87 83 79 77 95 86 73 102 109 134 108 91 80 97 91 98 105 101 104 127 153 142 121 117 97 64 68 87 80 49 47 42 26 8 16 5 29 35 25 42 26 19 23 11 12 16 16 21 39 14 11 11 3 -33 11 26 5 66 79 88 98 95 109 91 68 -420 -708 -223 109 97 40 56 92 93 87 74 38 9 -3 -41 -27 -60 -92 -155 -167 -243 -260 -274 -311 -370 -345 -247 -225 -133 -56 0 48 48 69 81 81 101 99 76 96 81 89 117 107 86 94 99 93 97 142 131 109 116 117 102 114 150 123 123 126 99 111 151 162 125 109 73 91 75 79 77 64 47 57 66 76 81 69 35 37 27 42 42 40 15 -5 -52 -61 -65 -44 25 49 87 112 114 94 75 72 -357 -644 -159 173 123 98 73 78 57 48 47 53 25 9 17 6 -19 -22 -109 -116 -209 -234 -291 -304 -289 -351 -304 -247 -147 -64 39 59 91 94 67 82 100 86 70 99 63 53 39 31 65 93 47 84 89 74 80 91 84 89 85 89 120 147 101 89 109 106 96 135 135 137 96 99 94 94 84 107 87 66 62 58 75 85 38 46 34 22 6 -8 -21 7 -4 -22 0 37 21 57 -2 53 52 42 -163 -669 -568 -29 112 52 97 69 74 39 27 33 11 0 -12 -20 -59 -25 -63 -88 -173 -190 -236 -273 -282 -300 -257 -234 -136 -69 -4 35 106 124 102 92 93 104 85 85 76 73 65 57 58 92 61 39 54 35 44 45 33 85 113 104 113 84 91 101 120 118 96 107 93 107 95 95 126 127 131 143 131 147 110 102 119 120 114 107 99 75 68 67 82 70 45 38 13 44 10 32 12 43 46 24 -15 -49 -44 -63 -31 11 -8 28 -24 34 -6 27 -5 -547 -654 -126 118 38 35 23 37 23 1 1 -7 17 35 -9 -42 -43 -114 -107 -139 -160 -254 -274 -319 -341 -297 -284 -180 -117 -47 16 99 77 62 77 67 103 115 100 61 55 46 55 37 66 65 36 24 29 25 49 63 66 63 70 67 120 149 106 101 98 98 131 119 115 134 113 109 99 111 114 119 113 102 95 68 55 38 32 46 52 25 18 13 14 7 1 -10 -16 -22 -6 20 17 -7 0 -19 -22 -17 -26 -43 -55 -88 -83 -86 -70 -2 15 11 29 35 47 53 23 -379 -690 -411 22 122 54 22 22 43 20 20 27 -17 -7 -32 -39 -85 -75 -121 -127 -199 -252 -302 -336 -361 -369 -290 -278 -186 -93 10 24 31 38 63 69 60 65 34 61 117 101 94 105 126 84 63 71 68 110 106 102 92 100 102 101 134 143 135 134 118 131 123 110 122 119 116 126 129 132 87 75 66 113 88 65 43 39 36 49 67 29 14 64 63 27 15 26 12 23 10 8 7 35 20 14 -10 -22 -18 -19 39 82 79 92 85 94 62 61 -320 -701 -313 98 115 59 57 56 57 52 9 -14 -35 -35 -70 -65 -103 -167 -191 -149 -193 -223 -286 -324 -358 -382 -305 -287 -183 -125 -51 38 80 44 37 46 47 97 112 94 76 88 62 65 116 86 109 121 76 87 94 96 97 149 106 92 107 103 132 151 100 96 97 102 81 70 65 49 43 99 113 85 92 90 47 33 41 37 26 13 10 49 69 25 9 9 7 0 -28 -47 -68 -19 -11 9 113 83 43 68 59 137 132 21 -563 -666 -108 139 73 36 43 115 95 21 10 46 16 4 -35 -29 -118 -115 -174 -178 -264 -284 -368 -380 -367 -370 -302 -250 -140 -132 -52 -22 -1 12 12 11 63 63 56 33 16 39 22 63 44 44 73 68 70 75 58 68 77 66 73 85 70 101 112 90 78 77 82 88 67 76 122 118 95 68 32 60 56 61 59 38 25 34 16 20 5 13 -6 -5 30 18 -25 -38 -58 -53 -36 13 26 20 0 64 29 61 48 -424 -738 -256 141 54 24 32 30 65 51 18 -5 6 -6 -26 -57 -64 -115 -89 -113 -146 -219 -286 -334 -358 -328 -335 -244 -132 -71 -22 32 39 34 55 97 112 45 75 53 84 52 51 32 29 7 27 48 67 81 75 51 71 67 65 114 119 71 99 55 87 112 87 91 104 71 78 79 113 92 78 69 83 102 100 114 97 83 46 28 43 23 37 15 15 3 32 13 0 -33 -63 -73 -63 -14 16 -3 21 37 55 53 25 -414 -755 -375 61 70 11 27 44 14 12 -21 -21 7 16 -1 -55 -91 -60 -107 -145 -211 -235 -278 -308 -323 -308 -330 -239 -142 -70 4 21 41 76 64 70 52 80 91 82 41 51 33 31 60 30 13 25 2 20 53 81 69 39 85 77 59 104 69 83 65 79 116 123 91 125 122 106 87 126 72 77 67 57 76 95 82 93 41 64 66 34 13 19 31 12 9 -13 -39 -62 -97 -95 -76 -79 -36 15 -23 0 -6 -12 -15 -214 -713 -646 -102 72 -18 -40 -28 16 20 0 -27 -34 -42 -42 -71 -47 -71 -96 -178 -187 -218 -249 -333 -319 -328 -304 -240 -166 -85 0 44 70 93 97 85 79 58 64 117 102 70 95 71 50 47 44 38 67 19 53 68 66 90 36 27 43 41 78 65 81 69 77 70 122 137 133 122 100 70 80 127 126 86 114 86 96 72 111 114 64 47 49 7 27 34 -5 36 105 72 65 76 75 13 32 -387 -709 -272 98 104 41 -12 -3 -17 -25 -45 -65 -88 -85 -86 -91 -85 -103 -159 -175 -236 -272 -307 -296 -313 -342 -321 -232 -112 -41 11 81 101 114 164 153 141 149 146 138 130 123 91 86 116 133 127 87 69 78 65 75 56 39 49 101 94 79 77 74 46 45 24 46 67 68 51 45 43 61 53 66 74 111 64 39 67 7 -31 41 38 89 120 128 154 147 107 109 95 -204 -627 -380 121 117 30 38 35 22 17 -23 -37 1 -17 -23 -57 -113 -152 -152 -196 -212 -294 -343 -385 -379 -357 -338 -282 -179 -128 11 15 63 61 89 133 137 139 123 87 151 134 133 148 106 75 78 107 82 91 97 88 116 99 98 161 130 97 94 87 113 94 75 56 52 96 49 37 96 67 57 27 57 35 44 71 36 18 28 0 -12 -38 17 3 -25 2 8 51 131 110 101 52 106 134 115 -30 -574 -665 -47 159 72 37 69 54 19 32 12 11 1 -29 -9 -41 -110 -112 -151 -221 -274 -354 -348 -380 -418 -413 -340 -250 -157 -41 4 26 84 71 86 50 60 67 58 97 62 56 66 48 69 45 59 111 108 109 112 74 83 83 92 83 102 94 105 70 89 136 107 86 134 85 90 58 66 92 83 77 39 19 63 22 30 14 29 2 9 7 15 53 25 3 0 -13 -4 23 0 -24 17 16 -6 -10 1 6 11 -8 -53 -47 -12 3 42 28 67 50 57 16 46 -60 -588 -670 -124 60 14 21 39 36 -18 -42 -18 -29 -38 -61 -89 -132 -129 -183 -221 -255 -317 -372 -402 -442 -422 -406 -366 -287 -192 -85 -36 -4 28 32 83 87 94 96 97 73 119 122 100 62 66 92 97 75 73 75 83 77 122 126 108 109 109 82 100 100 93 58 83 117 98 82 54 39 44 41 57 49 64 52 29 45 13 -4 49 25 18 16 10 4 -1 -17 -19 -4 -21 -7 3 -8 3 -4 0 0 -1 4 -42 -65 -56 -10 50 94 94 68 68 71 101 -71 -625 -606 -42 111 21 28 4 -18 33 4 -18 -23 -55 -76 -82 -114 -146 -177 -198 -265 -276 -318 -359 -393 -412 -426 -365 -290 -188 -85 15 91 94 88 104 104 125 148 158 120 121 109 119 153 123 110 94 106 103 96 107 109 110 104 145 116 93 123 125 130 115 66 102 119 79 61 63 92 60 39 93 70 70 75 41 21 29 56 63 7 20 24 34 36 46 32 32 50 41 8 -1 -13 48 114 112 86 95 93 83 97 66 -467 -704 -195 155 94 70 94 88 47 125 1 2 -2 -15 -39 -83 -120 -143 -196 -225 -287 -302 -351 -422 -438 -431 -394 -274 -151 -79 -38 18 65 71 69 94 81 125 134 118 136 129 125 98 89 100 86 119 107 85 95 100 101 100 99 101 97 97 99 99 96 110 123 94 56 57 50 61 63 62 30 37 63 34 10 25 48 62 12 26 16 5 
#avL[uV]
-4215 -4034 -3365 -3186 -2537 -2638 -1728 -1773 -894 -982 -73 -51 -54 -46 -35 -38 -21 -18 -3 -6 -4 1 12 11 7 10 12 2 -11 -11 -20 -28 -26 -33 -25 -37 -39 -41 -39 -32 -43 -44 -38 -43 -39 -32 -35 0 -2 -23 -13 -25 -16 -11 2 10 10 48 39 11 32 37 64 67 37 34 20 59 15 54 -9 38 427 641 392 -108 -90 75 33 19 16 13 10 21 24 30 15 15 12 35 19 39 49 73 89 105 126 82 78 33 26 -11 -37 -65 -68 -58 -46 -44 -41 -5 -14 -27 -4 -1 -5 -12 4 20 21 14 17 16 22 27 11 4 7 8 8 22 8 9 1 -4 -23 -11 -24 -24 -26 -50 -40 -41 -28 -28 -32 -52 -43 -46 -61 -60 -49 -56 -38 -55 -55 -47 -43 -54 -34 -18 -18 -16 -8 -1 9 6 3 14 20 27 31 16 69 55 19 28 27 52 5 45 -6 30 381 645 410 -144 -188 -12 -45 -36 -43 -54 -53 -51 -54 -55 -54 -41 -33 3 8 43 29 47 62 70 106 63 54 -3 3 -22 -19 -52 -63 -37 -41 -47 -42 -45 -39 -42 -36 -25 -19 0 -17 -26 -8 -21 -19 -22 -14 -9 0 4 -3 -32 -42 -39 -41 -46 -52 -77 -62 -69 -52 -53 -64 -63 -70 -71 -76 -88 -74 -87 -63 -56 -71 -83 -75 -75 -68 -56 -42 -35 -31 -28 -9 -14 1 8 42 28 25 -5 5 23 17 21 17 -24 135 491 600 148 -205 -50 -5 -15 -16 -19 -4 -15 -13 -20 -24 -6 -3 14 21 56 44 58 70 92 109 86 94 26 3 -45 -64 -89 -88 -85 -73 -76 -56 -58 -56 -61 -54 -18 -27 -30 -5 -6 -5 -5 0 10 8 0 5 -2 0 5 18 15 20 7 -16 -23 -18 -38 -34 -31 -33 -33 -41 -66 -47 -46 -41 -47 -46 -46 -65 -63 -52 -61 -51 -60 -60 -50 -58 -49 -37 -31 -8 14 8 19 19 52 60 7 20 16 21 -4 12 -33 0 372 618 328 -159 -157 -17 -37 -17 -15 1 -18 -24 -24 -25 -20 -13 13 2 39 30 46 57 77 96 75 84 13 20 -34 -42 -47 -63 -75 -71 -71 -42 -29 -51 -58 -31 -47 -34 -29 -13 0 22 20 21 1 17 17 24 15 10 26 27 33 38 48 29 5 15 -1 -16 -9 -32 -28 -37 -41 -61 -72 -67 -63 -57 -58 -62 -61 -47 -57 -48 -47 -44 -43 -43 -32 -10 -42 0 -3 -11 13 38 70 71 28 42 42 54 49 59 -12 66 464 697 346 -133 -88 64 13 47 58 80 68 59 49 55 53 49 72 63 76 82 97 109 141 157 136 129 101 66 18 -8 -45 -51 -63 -60 -44 -48 -48 -52 -51 -41 -34 -24 -7 -1 -17 -9 -1 8 -2 9 27 14 2 20 11 13 26 21 18 27 22 26 40 30 24 13 1 -8 -23 -25 -36 -30 -46 -42 -24 -35 -26 -35 -40 -39 -44 -49 -50 -31 -60 -69 -57 -43 -18 -16 -45 -10 -11 26 1 17 -39 21 433 636 289 -205 -176 -11 0 14 27 31 29 70 60 64 92 84 108 102 117 111 140 145 165 187 185 155 111 74 20 9 -27 -49 -44 -55 -70 -69 -61 -81 -79 -73 -84 -75 -77 -69 -40 -28 -48 -37 -20 -22 -19 -15 -12 -5 -8 7 27 33 18 18 9 17 16 33 36 40 20 32 16 21 23 18 5 -7 -16 -15 0 -27 -24 -24 -47 -24 -27 -37 -37 -21 15 24 -27 -24 -34 -36 -31 -36 -48 -61 176 504 557 -11 -256 2 -10 12 0 25 9 23 35 42 47 47 67 77 119 116 98 112 155 165 179 177 128 114 50 19 -17 -28 -29 -40 -54 -58 -58 -74 -72 -71 -80 -80 -75 -82 -69 -45 -62 -52 -65 -61 -69 -68 -77 -55 -31 -22 -14 -30 -31 -17 1 13 -10 -15 -12 -11 0 0 0 22 20 15 17 15 3 17 6 28 8 7 8 -22 -28 -3 -19 -22 -38 -34 -41 -31 -40 -42 -41 -30 -6 -28 -49 -32 -27 4 -28 -52 -56 -56 -42 -64 -51 -89 87 473 682 152 -253 -48 -26 -12 -9 -7 9 23 15 36 62 40 46 49 70 75 112 124 142 152 151 154 90 91 39 13 -32 -44 -39 -60 -69 -76 -73 -82 -71 -70 -83 -70 -82 -84 -84 -69 -61 -71 -68 -62 -56 -57 -48 -39 -38 -30 -34 -5 -4 -16 -4 -12 -10 24 0 0 8 8 -15 1 15 11 0 2 -2 -9 -19 -31 -51 -54 -40 -52 -58 -62 -66 -71 -77 -84 -87 -74 -87 -74 -62 -66 -64 -80 -80 -85 -91 -75 -93 -95 -88 -57 -24 -19 -41 -36 -43 -21 -49 -24 -62 -20 355 603 403 -95 -147 -5 -33 -9 -6 21 16 26 27 30 43 34 39 42 57 55 83 73 81 116 102 113 96 71 -4 -2 -43 -51 -62 -57 -70 -70 -73 -66 -67 -70 -58 -48 -38 -4 -9 -33 -28 -10 -25 5 2 -2 -10 -10 -11 -1 8 6 19 9 -8 14 3 -2 -1 -1 -7 -4 0 -9 -33 -35 -32 -24 -16 -33 -54 -51 -51 -33 -43 -48 -48 -41 -28 -51 -41 -47 -50 -47 -48 -53 -43 1 -18 -23 -9 -3 32 36 5 27 16 20 -15 1 -34 13 378 599 315 -185 -234 -47 -39 2 -4 10 23 6 4 -4 10 9 24 31 27 80 107 111 124 144 120 130 93 72 3 -14 -54 -56 -51 -68 -77 -75 -89 -65 -30 -56 -44 -33 -43 -20 12 6 2 15 1 -5 6 -3 3 13 7 17 7 12 35 30 3 10 6 6 1 -5 -30 -26 -38 -9 -13 -34 -28 -25 -53 -38 -40 -48 -39 -32 -41 -24 -38 -36 -38 -34 -47 -27 -37 -64 -50 18 37 29 14 3 9 -1 -10 17 -37 117 495 662 175 -218 -59 10 -7 22 33 28 15 32 29 18 31 0 13 -3 8 2 21 26 42 50 49 46 1 -12 -66 -82 -122 -120 -126 -121 -123 -110 -97 -84 -87 -104 -107 -101 -81 -59 -55 -55 -34 -25 -26 -13 -35 -30 -16 -10 -18 -11 -10 31 12 -10 -17 -6 -10 -6 -14 1 0 22 0 -26 -52 -52 -25 -39 -49 -51 -55 -52 -63 -51 -61 -56 -58 -51 -23 -45 -90 -49 -43 -22 -19 -44 -22 -57 -34 -62 -19 -62 -9 393 620 347 -155 -123 -11 -16 -5 35 44 13 20 13 20 45 47 54 60 94 121 119 145 133 138 131 97 95 41 34 -34 -25 -73 -54 -81 -65 -63 -55 -86 -82 -79 -70 -82 -81 -85 -79 -80 -82 -49 -36 -42 -28 -39 -38 -39 -17 -6 -2 -20 -18 -5 -13 -3 -13 -17 -16 2 -2 -16 11 2 9 -8 -2 10 8 -10 -18 -22 -37 -46 -32 -47 -41 -52 -52 -66 -51 -32 -50 -33 -45 -24 -1 -48 -58 -70 -54 -61 -28 -90 -48 330 576 391 -125 -193 -15 -49 -32 -34 -12 -23 -7 11 32 34 37 26 61 86 81 95 115 155 158 175 164 107 79 39 -1 -30 -58 -70 -79 -87 -75 -109 -102 -86 -68 -90 -103 -102 -77 -82 -88 -95 -91 -96 -91 -86 -75 -71 -66 -51 -53 -52 -24 -43 -33 -35 -24 -9 -17 -27 -8 -1 -21 -32 -35 -33 -32 -41 -43 -29 -28 -46 -18 -46 -28 -46 -61 -71 -58 -69 -55 -71 -75 -104 -90 -95 -69 -60 -91 -108 -74 -89 -117 -101 -124 -140 115 460 506 -95 -327 -123 -88 -78 -51 -44 -31 -25 -11 0 7 15 47 63 72 66 88 138 146 167 200 177 157 137 73 32 18 -34 -49 -66 -73 -73 -79 -98 -92 -92 -77 -88 -78 -66 -89 -84 -76 -85 -69 -66 -73 -63 -50 -69 -67 -61 -71 -51 -48 -44 -43 -30 -22 -27 -4 10 -5 -7 -12 -25 -3 1 -2 2 -2 -7 10 -2 4 20 18 1 -16 -14 19 44 41 -17 0 -13 -4 -37 -31 -44 -28 362 567 223 -235 -255 -54 -69 -52 -44 -31 -24 -15 -21 -23 7 15 47 77 79 109 132 161 167 220 227 204 173 137 99 58 1 0 -28 -19 -15 -3 -26 -29 -27 -16 -20 -33 -49 -38 -29 -21 -30 -45 -46 -38 -48 -39 -42 -42 -56 -52 -42 -36 -28 -23 -54 -51 -58 -54 -53 -48 -41 -37 -36 -13 -28 -16 -7 0 -2 -6 -11 26 50 51 25 11 35 25 41 16 25 -19 5 370 600 484 -72 -180 -7 -27 -16 -20 -18 -7 0 21 20 5 30 18 28 36 51 82 83 98 127 138 130 114 53 15 2 -28 -47 -32 -60 -52 -47 -26 -15 -24 -38 -17 -3 -11 -9 -2 -6 3 1 3 0 8 1 8 0 2 10 17 -11 -12 -18 -4 -30 -29 -35 -24 -31 -39 -53 -19 -31 -40 -56 -55 -66 -38 -36 -46 -51 -45 -54 -48 -63 -37 -2 41 42 32 -8 7 14 14 -6 20 10 -10 155 533 694 173 -200 -35 5 20 -1 36 25 28 34 44 36 56 57 53 70 82 96 97 122 157 140 131 114 86 42 11 -13 -28 -72 -49 -60 -51 -70 -67 -69 -62 -55 -58 -57 -39 -42 -13 -23 -11 -6 12 8 16 3 7 3 9 11 21 13 9 13 12 13 11 13 26 16 5 -5 -12 -22 -16 -19 -25 -43 -30 -45 -31 -43 -37 -49 -40 -46 -33 -22 -35 -49 -38 -51 -38 -42 -49 -49 -34 -26 -25 -16 -21 -20 -12 1 53 59 34 -2 5 12 14 11 16 0 -34 154 527 678 139 -227 -39 -4 -1 -6 -14 -19 -3 -3 -4 -3 10 15 13 36 44 51 83 95 118 138 146 131 94 58 11 -25 -49 -73 -72 -75 -57 -57 -41 -43 -49 -35 -32 -41 -18 -23 -4 -6 1 -4 -3 -8 1 -2 0 0 14 19 11 1 10 0 3 -13 -16 -10 -30 -26 -29 -36 -30 -46 -31 -41 -32 -29 -37 -45 -46 -46 -46 -39 -39 -37 -42 -56 -62 -55 -51 -48 -59 -28 -19 -29 -14 -20 -11 -17 -18 -8 2 16 56 16 13 30 47 15 30 28 5 205 563 656 89 -260 -48 -11 -30 -19 -3 -11 7 0 13 -3 12 26 42 39 71 80 116 145 153 160 176 146 106 60 29 -3 -29 -26 -22 -30 -27 -17 -15 -1 0 -3 -3 -9 4 14 16 8 8 2 14 8 19 10 20 21 8 12 7 12 8 -13 -6 -22 -20 -15 -21 -27 -28 -33 -34 -33 -31 -29 -31 -34 -34 -41 -46 -57 -49 -31 -37 -36 -23 -16 -4 8 7 3 13 32 51 74 53 44 53 32 38 9 46 -17 59 465 644 308 -141 -90 27 21 27 1 -141 9 9 5 15 11 5 21 16 37 52 70 102 131 133 120 126 91 66 31 14 -48 -48 -63 -54 -46 -59 -37 -30 -38 -30 -25 -29 -25 -10 -16 -21 -11 -1 6 0 8 -2 3 3 9 9 8 8 7 7 11 2 0 -15 -29 -38 -44 -41 -38 -41 -44 -40 -53 -43 -51 -50 -40 -56 -54 -44 -57 -52 
#avF[uV]
8254 8229 6534 6512 4913 5002 3272 3338 1630 1764 7 -7 -5 -5 -22 -25 -54 -63 -81 -91 -91 -103 -111 -113 -122 -123 -107 -83 -77 -64 -53 -51 -35 -29 -23 -12 -14 -7 -9 -12 -7 -6 -13 -6 -1 2 -12 -80 -68 -28 -32 11 -38 -25 -56 -49 -73 -127 -101 -40 -24 -32 -38 -88 -128 -110 -123 -105 -107 -128 -92 -135 -52 41 -98 -16 -1 -188 -144 -64 -60 -29 -10 -34 -27 -30 -2 50 47 84 100 140 154 189 220 181 210 228 243 178 114 53 48 37 14 -16 -37 -42 -97 -125 -98 -76 -106 -119 -103 -81 -104 -154 -135 -124 -111 -107 -128 -146 -121 -106 -105 -106 -150 -147 -111 -109 -84 -62 -53 -98 -60 -35 -32 -1 -8 -28 -36 -66 -53 2 -8 0 18 15 5 22 -22 5 12 5 -15 34 -14 -53 -23 -31 -52 -33 -56 -55 -60 -58 -88 -122 -58 -30 -61 -69 -98 -103 -143 -159 -118 -118 -120 -168 -92 -2 -90 36 98 -39 -13 22 16 49 54 81 95 115 98 129 89 91 91 114 163 221 246 256 243 234 290 245 155 43 6 21 -22 -83 -64 -49 -73 -43 -85 -56 -66 -114 -120 -134 -100 -75 -102 -68 -87 -91 -86 -93 -95 -150 -127 -65 -41 -29 -31 -12 -2 16 23 16 -24 -49 -15 2 23 16 41 46 55 54 18 -4 34 50 38 49 44 18 2 -9 -9 -17 -9 -10 -35 -41 -47 -23 -42 -73 -88 -102 -125 -99 -107 -76 -118 78 28 -117 55 -29 -59 -26 -29 5 -9 30 33 53 66 83 81 114 58 70 131 185 195 225 211 233 260 219 211 132 150 106 71 40 8 5 -26 -25 -38 -26 -41 -113 -98 -50 -106 -110 -100 -88 -129 -108 -100 -93 -100 -89 -87 -87 -138 -140 -142 -112 -62 -39 -33 -7 -27 -7 -13 -1 -14 43 15 -12 -16 -6 -24 3 39 39 5 24 22 34 30 37 48 42 15 10 -27 -52 -54 -26 -15 -37 -47 -51 -96 -75 -95 -48 -79 -28 -31 24 119 -5 110 93 -3 43 2 -23 -18 57 69 89 77 102 110 98 91 106 118 201 217 249 261 258 278 289 241 207 141 31 11 40 39 20 -40 -51 -35 -25 -47 -29 -60 -56 -60 -102 -132 -154 -129 -93 -98 -115 -115 -114 -115 -128 -131 -161 -192 -190 -150 -123 -113 -62 -52 -78 -47 -21 -10 -1 34 64 50 57 27 22 37 19 20 38 24 35 32 26 26 11 -29 27 -10 -8 7 20 -49 -97 -76 -95 -121 -131 -153 -145 -169 -78 -135 -44 11 -123 24 -8 -105 -70 -140 -152 -168 -142 -98 -58 -52 -12 -22 -12 28 79 84 145 151 132 154 234 215 146 159 114 65 46 3 15 -8 -37 -32 -52 -47 -24 -55 -46 -65 -110 -106 -69 -85 -98 -102 -94 -151 -158 -123 -118 -138 -113 -128 -176 -145 -142 -154 -121 -138 -192 -192 -149 -122 -74 -82 -52 -54 -40 -34 -1 -15 -42 -41 -54 -33 4 1 16 6 7 -9 44 75 109 104 84 61 20 -38 -75 -139 -116 -112 -35 -93 -75 8 -129 31 52 -86 -72 -93 -84 -80 -76 -123 -86 -73 -109 -91 -89 -79 -7 5 69 88 125 117 103 195 193 173 127 54 -11 -10 -47 -39 2 -13 -39 -5 9 -26 21 22 38 37 -24 -65 0 -47 -68 -51 -60 -76 -72 -83 -77 -96 -147 -180 -120 -108 -118 -123 -112 -169 -171 -177 -117 -131 -111 -116 -107 -126 -93 -59 -46 -42 -75 -57 -14 -22 12 1 20 45 58 13 -11 -1 28 -13 12 -21 33 -16 -4 18 -13 165 11 41 144 -55 -86 -82 -73 -65 -36 -56 -46 -43 -35 -27 -8 -51 -55 -27 74 77 80 107 102 122 129 120 86 50 21 -6 -76 -84 -47 -34 -35 -30 -13 -13 3 7 9 24 11 -47 1 12 10 25 24 23 44 -30 -81 -81 -99 -53 -59 -84 -121 -132 -86 -91 -81 -95 -95 -95 -126 -150 -151 -158 -148 -163 -114 -119 -126 -148 -122 -114 -107 -52 -40 -64 -62 -47 -7 -4 28 -12 29 9 28 -13 -39 3 64 81 72 58 60 40 64 27 66 29 57 61 -81 73 -28 -25 134 10 -8 -10 -27 -16 -11 -24 -8 -53 -98 -30 -4 -6 43 31 26 35 112 122 168 187 207 192 141 103 80 28 -60 -16 7 0 5 -21 -43 -29 22 15 35 28 47 2 -4 34 44 32 30 8 -14 -26 -25 -39 -32 -115 -144 -90 -97 -85 -88 -156 -120 -115 -142 -121 -94 -101 -126 -126 -118 -115 -99 -85 -48 -24 12 21 -5 0 32 44 52 57 69 82 97 90 110 80 42 48 72 80 99 108 109 101 136 150 177 140 110 90 43 21 32 -8 13 -23 9 -2 23 86 8 72 24 -48 10 -12 -36 -42 -36 -54 -9 -22 -10 4 46 32 64 71 116 179 220 220 258 255 193 207 191 95 32 26 30 19 6 1 12 0 33 8 -58 -53 -55 -100 -116 -51 -34 -61 -43 -116 -109 -99 -81 -89 -90 -100 -142 -150 -155 -143 -110 -145 -127 -108 -120 -118 -109 -122 -129 -123 -54 -40 -33 -88 -72 -32 10 12 15 -15 -24 18 34 -23 -34 23 26 20 37 24 37 44 35 -36 -1 8 20 25 -14 -16 -45 -110 -95 -113 -69 -95 -27 -74 -58 102 -1 86 119 -12 -17 -58 -52 -63 -32 7 31 39 60 56 78 136 164 69 86 112 161 179 238 251 212 214 180 140 105 18 -28 23 40 29 41 -31 -81 -37 -31 -55 -18 -45 -128 -92 -111 -136 -77 -82 -101 -92 -100 -163 -113 -109 -114 -116 -168 -182 -103 -107 -104 -108 -82 -65 -34 -22 -5 -89 -99 -51 -63 -65 5 5 -1 10 13 18 30 -25 -30 11 29 25 40 28 66 111 119 0 -25 -38 -127 -87 -53 -67 -49 -155 -95 -139 67 4 -67 79 -14 -47 -35 -138 -129 -50 -26 -79 -46 -23 4 29 104 119 166 176 242 257 326 330 317 324 300 262 206 214 174 142 128 109 110 99 33 21 30 71 90 62 58 -4 10 10 -38 -43 -43 -62 -22 -38 -60 -55 -55 -73 -59 -132 -125 -79 -61 -71 -72 -81 -52 -78 -123 -140 -96 -41 20 -7 -31 -22 -9 13 29 17 46 31 55 42 65 57 -7 27 115 88 102 75 56 31 -4 37 33 -2 -9 0 -39 30 117 -90 13 68 -12 -15 -25 -100 -96 -31 -14 -20 -13 -18 10 10 54 -5 -7 27 74 153 196 226 231 239 202 97 105 48 41 14 47 9 -34 -56 41 6 25 -13 30 30 53 50 73 54 1 -31 -38 -47 -11 -32 -27 -47 -108 -117 -50 -80 -49 -74 -109 -74 -73 -87 -74 -76 -62 -124 -94 -87 -60 -80 -113 -108 -103 -78 -61 -8 18 -10 24 3 36 36 63 19 18 50 67 109 98 65 63 41 73 32 24 -27 36 22 84 178 -16 63 123 4 22 -11 20 0 45 29 -18 -49 -33 18 65 -1 20 64 116 120 122 150 147 143 222 159 103 72 26 36 29 3 23 5 56 21 -5 -13 49 52 69 46 21 58 81 66 93 70 33 -5 1 27 -33 -24 -7 -79 -25 -50 -30 -55 -107 -105 -63 -116 -121 -84 -55 -91 -39 -45 -25 -13 -46 -67 -35 -74 5 -36 -20 26 58 38 37 43 61 88 143 153 192 164 136 171 144 58 112 117 107 137 156 98 253 140 197 255 142 128 106 34 23 31 53 45 41 35 56 0 7 23 111 98 80 103 166 118 151 147 102 93 52 -18 -9 -21 -27 -24 -12 0 39 27 -24 -25 17 -16 -5 38 37 31 47 2 46 19 -4 -16 -20 30 34 27 10 -30 -21 -38 -39 -54 -42 -117 -148 -127 -115 -87 -45 -77 -128 -123 -88 -111 -78 -106 -69 -115 -134 -83 -49 -32 6 -46 -79 -36 -19 -106 -58 -60 -38 -44 31 -4 24 142 48 136 150 12 82 55 62 56 70 80 110 108 78 76 37 25 80 66 104 111 139 76 85 137 147 95 12 -17 -13 -81 -72 -94 -148 -150 -114 -120 -119 -122 -109 -90 -42 -47 -86 -112 -97 -41 -23 -39 -17 -36 -14 2 6 -48 -51 -43 -48 -51 8 6 34 7 -13 -20 -9 -7 -7 -47 -24 -50 -66 -111 -62 -32 -56 -34 -19 -93 -64 -100 -155 -154 -196 -164 -133 -90 -100 -166 26 -103 -49 62 -22 -11 -18 -2 1 31 38 -23 -2 17 26 95 124 116 144 129 210 244 258 240 226 223 229 164 126 16 31 -30 0 -37 -85 -110 -123 -99 -48 -133 -131 -122 -138 -103 -69 -82 -108 -85 -90 -106 -89 -125 -100 -100 -171 -147 -86 -82 -68 -108 -63 -45 -21 -27 -64 -10 15 -76 -36 -17 28 -2 30 -6 -35 9 32 17 55 60 102 19 -1 -15 -45 -40 -42 -139 -124 -116 -46 -126 -144 -105 -124 40 -28 -126 40 -37 -42 -90 -52 -55 -58 -40 -45 -46 -7 -46 -16 56 41 68 124 177 232 191 240 287 298 253 208 146 55 24 46 -35 -11 -34 19 7 2 4 -41 -4 0 -27 -6 -56 -22 -48 -105 -120 -118 -129 -78 -91 -87 -101 -95 -124 -107 -115 -84 -102 -149 -119 -99 -160 -101 -96 -52 -54 -70 -66 -58 -14 23 -33 22 0 29 7 46 31 38 18 -30 9 46 38 65 43 18 49 74 16 10 32 26 20 14 0 6 0 -11 -21 -1 -47 -40 -82 -61 -73 -16 -11 -94 60 -8 -14 166 25 -16 -37 -30 32 62 22 33 43 64 78 117 115 147 177 203 233 277 284 304 276 275 272 228 180 111 85 78 43 43 -26 -29 -53 -53 -48 -37 -87 -80 -82 -38 -62 -86 -98 -71 -70 -67 -85 -75 -122 -126 -122 -129 -120 -83 -110 -100 -96 -45 -67 -106 -68 -56 -25 -2 -14 4 -25 -8 -31 -23 8 0 32 50 -3 13 20 20 32 52 64 72 70 53 80 36 16 38 11 25 10 17 20 3 40 48 0 -6 -63 -124 -141 -83 -99 -100 -106 -134 62 -50 -46 149 27 -17 25 38 -30 6 11 24 42 80 70 88 104 138 127 184 159 172 206 233 235 279 258 229 159 89 14 -65 -72 -58 -76 -86 -109 -146 -158 -116 -117 -100 -123 -167 -139 -119 -103 -109 -117 -105 -127 -120 -130 -125 -153 -129 -101 -136 -134 -117 -109 -44 -81 -103 -58 -33 -35 -58 -25 -5 -61 -41 -39 -41 -7 19 16 1 -13 23 16 11 -11 -20 -41 -40 -40 -53 -55 -41 -50 -60 -102 -158 -166 -119 -134 -103 -129 -80 -126 1 60 -112 -13 -4 -98 -116 -115 -49 15 -11 -11 -3 0 27 77 99 127 159 172 217 200 219 288 318 304 303 207 119 64 86 30 -1 -16 -23 -35 -43 -94 -96 -88 -111 -99 -99 -87 -72 -78 -75 -118 -113 -86 -103 -98 -104 -104 -109 -110 -105 -105 -106 -106 -107 -113 -124 -79 -26 -19 -6 -19 -25 -20 14 2 -10 8 41 25 -7 -6 41 18 41 46 
