ADC Sampling rate (Hz):
100
Fragment duration (sec):
20
Number of samples exported by each lead:
1999

#I[uV]
-38016 -35392 -30411 -27363 -22919 -19791 -15374 -12209 -7744 -4538 -143 -139 -170 -110 -130 -83 -147 -111 -172 -145 -191 -163 -121 -63 88 651 -32 -465 -183 -271 -213 -258 -271 -240 -219 -201 -205 -181 -188 -148 -130 -127 -130 -67 -70 41 -3 81 -5 43 -51 -88 -108 -225 -220 -294 -306 -288 -288 -286 -313 -276 -337 -274 -284 -274 -276 -293 -273 -278 -275 -264 -268 -268 -269 -252 -265 -257 -248 -265 -265 -266 -266 -270 -271 -271 -265 -267 -263 -256 -241 -236 -250 -243 -234 -247 -247 -235 -236 -241 -234 -238 -238 -240 -227 -233 -215 -233 -209 -200 -192 -170 -188 -135 -186 -227 -197 -249 -193 -254 -135 -274 -63 548 -17 -202 -133 -289 -217 -259 -223 -229 -226 -211 -194 -196 -182 -169 -140 -144 -103 -76 -62 -3 -15 63 0 62 -19 -37 -103 -186 -177 -296 -247 -332 -290 -303 -297 -288 -291 -282 -273 -268 -280 -268 -277 -267 -275 -284 -275 -282 -285 -282 -271 -271 -288 -280 -278 -271 -272 -265 -275 -276 -274 -276 -272 -284 -267 -272 -285 -251 -271 -259 -266 -250 -262 -248 -255 -252 -254 -235 -244 -224 -227 -215 -239 -227 -215 -196 -216 -203 -225 -244 -210 -255 -166 -272 -63 268 -92 140 -103 -454 -219 -272 -249 -277 -237 -234 -215 -213 -180 -192 -147 -154 -107 -113 -49 -27 8 76 21 100 0 31 -40 -120 -149 -261 -208 -288 -262 -293 -279 -278 -279 -271 -272 -261 -253 -231 -251 -246 -245 -250 -230 -245 -247 -254 -247 -241 -244 -232 -240 -241 -247 -237 -230 -235 -240 -229 -235 -238 -246 -237 -236 -226 -247 -219 -234 -238 -228 -237 -225 -222 -205 -221 -201 -205 -190 -181 -192 -154 -207 -250 -212 -233 -178 -218 -74 -165 -8 685 -26 -437 -129 -219 -202 -220 -218 -208 -195 -199 -180 -166 -143 -155 -99 -98 -40 -28 4 77 37 123 34 86 -26 -44 -98 -188 -180 -264 -234 -277 -257 -256 -261 -246 -250 -251 -248 -244 -243 -246 -234 -236 -222 -231 -222 -234 -217 -234 -235 -234 -234 -225 -230 -215 -219 -226 -219 -228 -224 -231 -226 -235 -236 -230 -236 -219 -232 -226 -231 -230 -220 -218 -217 -201 -213 -211 -212 -203 -204 -212 -199 -193 -198 -196 -178 -164 -186 -176 -186 -133 -184 -155 -190 -206 -159 -214 -100 -248 -79 381 89 220 -151 -342 -188 -252 -218 -252 -259 -217 -221 -190 -196 -179 -125 -142 -92 -86 -57 -10 -25 72 15 103 3 38 -77 -99 -129 -211 -194 -248 -235 -239 -279 -239 -287 -261 -279 -249 -258 -246 -307 -244 -248 -221 -218 -227 -192 -220 -193 -219 -251 -220 -224 -232 -311 -237 -315 -228 -293 -235 -262 -229 -270 -219 -288 -212 -290 -211 -273 -216 -223 -212 -213 -224 -169 -219 -243 -201 -250 -189 -156 -198 -163 -186 -160 -194 -194 -188 -125 -197 -205 -178 -244 -149 -170 -136 -124 -201 -213 -190 -135 -189 -97 -124 222 648 21 -446 -229 -206 -99 -188 -106 -157 -115 -140 -80 -125 -1 -120 7 -89 4 -10 53 89 68 148 96 112 89 -13 -59 -171 -115 -242 -138 -246 -167 -251 -199 -237 -250 -249 -163 -222 -159 -212 -157 -207 -112 -209 -223 -221 -200 -216 -187 -220 -189 -199 -157 -202 -189 -202 -169 -195 -175 -211 -147 -208 -168 -239 -200 -212 -158 -210 -190 -195 -178 -185 -203 -200 -175 -194 -188 -197 -146 -201 -195 -201 -152 -146 -156 -134 -136 -85 -109 -158 -163 -189 -130 -209 -155 -238 -93 477 579 49 -420 -341 -227 -228 -191 -206 -201 -197 -168 -175 -163 -177 -144 -154 -83 -100 -24 -5 33 83 60 115 21 27 -46 -133 -180 -234 -246 -257 -260 -272 -249 -258 -243 -274 -255 -264 -235 -249 -242 -229 -265 -246 -228 -237 -218 -229 -235 -219 -258 -249 -228 -227 -229 -230 -227 -241 -218 -235 -235 -225 -220 -209 -206 -204 -215 -219 -215 -215 -219 -220 -215 -215 -209 -216 -198 -200 -212 -200 -178 -190 -197 -178 -183 -181 -207 -160 -183 -138 -180 -237 -219 -240 -186 -223 -229 -235 113 598 468 -202 -470 -241 -212 -253 -223 -222 -207 -204 -184 -188 -145 -159 -106 -119 -53 -61 -8 17 59 112 88 125 29 27 -80 -116 -184 -193 -220 -230 -262 -249 -248 -242 -244 -236 -227 -261 -261 -236 -231 -220 -215 -235 -229 -241 -225 -231 -219 -224 -230 -220 -226 -217 -214 -230 -219 -212 -224 -216 -233 -232 -217 -229 -222 -218 -209 -214 -200 -207 -227 -213 -207 -208 -193 -195 -195 -192 -192 -192 -182 -188 -231 -203 -187 -172 -172 -161 -167 -103 -111 -173 -172 -209 -162 -241 -183 -282 -181 441 639 48 -514 -373 -243 -249 -210 -191 -188 -183 -178 -190 -166 -155 -106 -135 -78 -84 -13 -7 38 53 114 80 74 74 -31 -71 -146 -169 -216 -216 -232 -242 -243 -242 -239 -254 -256 -249 -199 -247 -221 -229 -203 -207 -205 -215 -200 -201 -224 -232 -229 -228 -209 -218 -235 -227 -247 -228 -193 -204 -214 -224 -194 -185 -208 -199 -176 -192 -193 -214 -208 -197 -206 -205 -201 -223 -209 -183 -156 -170 -163 -172 -122 -93 -162 -170 -162 -173 -197 -204 -243 -140 414 691 89 -440 -304 -178 -199 -159 -196 -180 -148 -162 -130 -145 -132 -106 -83 -98 -28 -52 30 53 95 103 112 100 123 19 -98 -128 -185 -188 -237 -229 -244 -229 -221 -253 -221 -229 -205 -224 -222 -223 -218 -212 -217 -185 -208 -188 -221 -210 -209 -227 -232 -208 -214 -222 -228 -204 -207 -222 -211 -221 -221 -204 -202 -212 -199 -207 -222 -199 -207 -196 -201 -201 -212 -191 -180 -176 -168 -171 -201 -169 -173 -154 -160 -138 -134 -91 -94 -154 -179 -186 -192 -185 -212 -282 35 510 595 -160 -504 -276 -274 -206 -263 -199 -216 -227 -182 -193 -183 -161 -139 -128 -92 -82 -32 -4 36 56 110 78 56 31 -73 -109 -222 -182 -275 -247 -279 -249 -252 -255 -243 -253 -237 -244 -251 -242 -254 -234 -231 -234 -241 -247 -253 -241 -253 -226 -235 -231 -246 -241 -232 -237 -235 -234 -247 -235 -238 -214 -251 -238 -235 -234 -232 -222 -219 -202 -201 -215 -228 -211 -204 -207 -214 -191 -201 -187 -202 -192 -208 -188 -181 -187 -141 -139 -112 -139 -178 -182 -215 -200 -222 -251 -196 265 615 61 -422 -315 -248 -176 -220 -164 -192 -164 -158 -123 -149 -74 -113 -120 -73 -46 -29 89 76 138 125 145 103 104 -12 -12 -151 -123 -245 -201 -258 -205 -256 -241 -247 -245 -220 -230 -211 -225 -222 -222 -207 -211 -210 -211 -218 -203 -242 -202 -214 -154 -219 -213 -209 -135 -206 -182 -230 -169 -225 -171 -245 -184 -221 -174 -215 -159 -211 -151 -195 -144 -182 -139 -185 -146 -190 -157 -196 -114 -206 -132 -188 -65 -119 -163 -196 -94 -193 -100 -199 -137 -83 186 678 46 -443 -197 -238 -169 -238 -227 -215 -221 -171 -126 -142 -126 -119 -70 -79 -83 -21 -49 66 0 108 -30 81 -47 -56 -165 -178 -210 -256 -226 -273 -259 -259 -267 -253 -253 -253 -275 -250 -266 -248 -237 -228 -267 -230 -254 -228 -240 -235 -289 -219 -231 -230 -250 -230 -247 -221 -242 -229 -298 -233 -236 -222 -232 -231 -263 -227 -221 -208 -212 -208 -217 -205 -201 -185 -216 -189 -226 -191 -200 -198 -178 -199 -192 -194 -195 -159 -175 -125 -188 -201 -177 -193 -175 -182 -123 -197 37 690 89 -297 -119 -225 -168 -223 -201 -214 -178 -166 -156 -127 -124 -100 -85 -67 -35 -18 -7 61 48 119 41 102 11 -1 -53 -136 -112 -224 -202 -254 -222 -254 -236 -256 -250 -246 -249 -245 -233 -234 -228 -226 -225 -202 -218 -201 -225 -219 -223 -218 -211 -213 -219 -217 -225 -214 -226 -235 -216 -213 -227 -219 -220 -207 -218 -221 -209 -202 -203 -199 -205 -193 -203 -202 -209 -215 -208 -198 -192 -203 -206 -195 -180 -170 -158 -141 -157 -115 -153 -182 -168 -200 -153 -196 -74 -214 18 616 14 -248 -71 -241 -182 -208 -199 -174 -159 -154 -140 -139 -115 -114 -77 -81 -18 -21 13 57 61 147 57 119 36 47 -35 -117 -126 -214 -193 -243 -228 -249 -240 -241 -244 -238 -231 -218 -222 -214 -221 -212 -206 -206 -210 -202 -212 -222 -210 -209 -202 -197 -198 -202 -196 -200 -196 -204 -193 -201 -194 -202 -194 -192 -184 -178 -189 -192 -182 -192 -176 -190 -168 -174 -165 -162 -156 -141 -149 -98 -138 -177 -154 -181 -114 -175 -36 -178 30 687 17 -319 -85 -215 -177 -197 -173 -192 -168 -164 -153 -135 -127 -110 -74 -81 -13 -20 30 74 68 155 84 155 37 42 -43 -95 -98 -208 -164 -223 -194 -200 -202 -203 -196 -197 -191 -200 -197 -192 -202 -186 -188 -200 -192 -203 -204 -190 -190 -183 -199 -208 -215 -207 -218 -209 -203 -211 -219 -207 -241 -195 -194 -200 -205 -190 -229 -190 -189 -189 -237 -180 -235 -186 -195 -181 -215 -169 -196 -154 -174 -117 -174 -123 -211 -183 -205 -219 -147 -223 -65 180 115 479 -114 -411 -131 -242 -218 -228 -237 -188 -229 -167 -214 -156 -189 -121 -87 -84 -72 -11 -22 306 25 133 -31 103 -41 -36 -181 -176 -191 -231 -229 -245 -210 -226 -181 -231 -252 -245 -269 -224 -167 -220 -245 -211 -269 -195 -242 -202 -172 -209 -231 -206 -175 -214 -180 -200 -230 -205 -190 -195 -87 -190 -148 -205 -136 -199 -128 -185 -176 -184 -141 -182 -119 -180 -146 -173 -101 -172 -66 -161 -135 -166 -137 -162 -110 -148 -110 -158 -131 -149 -50 -131 -134 -103 -40 -133 -113 -157 -50 -176 -43 -212 28 510 549 97 -291 -292 -118 -199 -103 -180 -75 -133 -106 -111 -70 -115 -45 -87 9 -41 102 35 95 134 189 168 134 128 17 -23 -89 -146 -161 -187 -181 -196 -192 -191 -197 -194 -192 -189 -195 -190 -188 -176 -160 -179 -186 -183 -192 -184 -187 -186 -185 -187 -164 -194 -185 -172 -184 -173 -188 -180 -190 -188 -184 -177 -187 -175 -166 -177 -170 -153 -156 -156 -155 -156 -139 -147 -147 -141 -125 -128 -127 -124 -117 -90 -79 -46 -93 -124 -111 -118 -91 -124 -158 -88 418 745 140 -344 -261 -158 -127 -150 -114 -114 -109 -91 -81 -85 -66 -95 -33 -43 5 7 86 95 127 170 138 182 103 76 -24 -52 -108 -153 -169 -173 -174 -183 -166 -156 -180 -179 -183 -164 -158 -164 -160 -145 -144 -155 -163 -153 -151 -164 -160 -177 -183 -164 -163 -161 -161 -164 -165 -166 -165 -155 -158 -156 -156 -160 -177 -153 -171 -169 -152 -154 -153 -152 -145 -146 -166 -152 -124 -149 -150 -166 -127 -130 -141 -111 -106 -70 -101 -167 -167 -150 -145 -180 -214 -175 245 679 462 -236 -378 -186 -163 -165 -131 -138 -151 -129 -99 -115 -76 -117 -70 -84 -34 -10 59 76 120 163 164 167 95 72 -23 -56 -124 -156 -178 -178 -194 -194 -187 -187 -205 -201 -202 -212 -178 -186 -166 -182 -157 -162 -186 -162 -175 -199 -208 -199 -186 -194 -187 -190 -215 -197 -179 -238 -199 -195 -192 -188 -178 -192 -187 -187 -186 -181 -185 -180 -181 -202 -189 -175 -157 -165 -154 -185 -151 -167 -161 -178 -214 -197 -158 -123 -135 -101 -112 -136 
#II[uV]
423 -2772 231 -3292 168 -3414 -24 -3501 -89 -3595 -218 -207 -208 -119 -176 -130 -190 -272 -187 -248 -189 -259 -160 -175 -45 269 -97 -230 -129 -264 -188 -266 -205 -235 -190 -218 -180 -164 -158 -147 -138 -162 -111 -119 -71 -39 -24 25 -21 4 -71 -128 -146 -287 -252 -361 -323 -365 -348 -360 -363 -361 -361 -357 -343 -330 -310 -300 -292 -292 -267 -277 -270 -278 -276 -267 -264 -264 -241 -252 -256 -272 -250 -254 -245 -241 -246 -268 -238 -246 -221 -226 -239 -279 -251 -289 -278 -307 -282 -301 -288 -304 -285 -272 -284 -304 -272 -327 -271 -304 -248 -176 -226 -217 -241 -323 -268 -368 -270 -356 -215 -233 -146 314 -100 -152 -71 -205 -122 -229 -118 -166 -129 -142 -107 -109 -99 -99 -79 -114 -51 -44 -3 55 31 82 37 40 20 -26 -70 -176 -165 -290 -252 -376 -329 -371 -355 -368 -363 -360 -355 -370 -363 -367 -351 -370 -334 -371 -348 -354 -345 -335 -329 -328 -333 -318 -292 -290 -281 -253 -257 -256 -253 -246 -253 -282 -250 -276 -287 -227 -284 -235 -273 -261 -283 -270 -297 -287 -305 -290 -306 -289 -296 -285 -302 -233 -295 -234 -264 -320 -311 -369 -330 -369 -296 -345 -216 -98 -255 -175 -206 -327 -255 -349 -272 -342 -274 -333 -243 -304 -210 -280 -184 -202 -134 -156 -72 -84 -25 17 3 49 -6 -9 -27 -136 -113 -292 -216 -335 -278 -327 -321 -327 -337 -330 -349 -370 -362 -371 -359 -339 -346 -347 -323 -351 -341 -346 -390 -311 -391 -326 -381 -356 -368 -338 -344 -302 -335 -292 -323 -288 -322 -281 -325 -231 -357 -228 -295 -351 -294 -329 -272 -274 -245 -262 -219 -203 -209 -148 -231 -219 -270 -374 -297 -363 -271 -368 -221 -328 -220 210 -196 -348 -259 -357 -314 -343 -344 -337 -342 -351 -318 -331 -274 -274 -206 -210 -130 -116 -71 0 -21 62 -17 63 -54 -66 -126 -186 -194 -295 -246 -316 -291 -314 -306 -303 -285 -330 -292 -285 -290 -320 -297 -331 -294 -322 -302 -326 -309 -324 -336 -398 -352 -389 -353 -373 -355 -390 -349 -366 -348 -355 -340 -350 -343 -345 -344 -341 -325 -325 -308 -300 -269 -270 -264 -249 -257 -252 -258 -246 -252 -281 -247 -248 -247 -238 -225 -222 -208 -160 -204 -150 -214 -210 -238 -293 -264 -284 -247 -295 -196 49 -165 -117 -195 -265 -267 -336 -297 -327 -318 -299 -305 -283 -286 -335 -224 -255 -171 -221 -96 -80 -21 21 -12 87 -12 26 -57 -91 -118 -200 -190 -254 -219 -263 -261 -267 -279 -296 -273 -260 -266 -257 -252 -233 -260 -231 -250 -280 -251 -282 -244 -292 -293 -297 -328 -324 -347 -322 -328 -285 -313 -303 -289 -288 -293 -293 -287 -303 -322 -278 -305 -296 -294 -262 -256 -278 -168 -257 -216 -221 -204 -209 -138 -220 -144 -207 -175 -235 -143 -214 -73 -194 -127 -160 -112 -112 -126 -188 -127 -255 -201 -278 -162 -267 -99 -273 -14 267 -61 -245 -197 -266 -152 -284 -182 -272 -156 -256 -142 -222 -88 -206 -48 -156 -44 -66 33 49 49 109 133 100 90 -31 37 -154 -86 -236 -100 -242 -118 -239 -170 -247 -201 -246 -194 -290 -207 -261 -198 -253 -132 -280 -267 -295 -288 -304 -276 -358 -307 -292 -275 -343 -292 -308 -241 -281 -260 -305 -217 -304 -288 -375 -316 -327 -236 -284 -241 -257 -278 -273 -259 -262 -213 -245 -194 -236 -197 -223 -218 -235 -194 -169 -142 -113 -120 -129 -153 -249 -216 -285 -215 -280 -251 -240 -175 207 190 -155 -269 -332 -315 -288 -238 -258 -233 -232 -230 -244 -231 -254 -243 -214 -132 -182 -54 -64 -2 47 -32 125 31 31 6 -151 -195 -249 -232 -262 -265 -292 -252 -280 -298 -340 -314 -310 -229 -261 -229 -213 -287 -275 -220 -330 -261 -295 -285 -291 -345 -354 -305 -306 -317 -319 -313 -387 -322 -344 -327 -306 -322 -332 -355 -351 -329 -385 -387 -361 -294 -314 -283 -260 -260 -290 -274 -254 -257 -259 -230 -253 -228 -289 -209 -246 -266 -195 -210 -181 -206 -268 -253 -290 -228 -289 -209 -306 -193 226 0 -239 -288 -292 -274 -335 -336 -324 -338 -291 -268 -286 -258 -252 -177 -202 -134 -150 -146 -130 -50 9 10 68 -8 -22 -100 -134 -221 -236 -261 -282 -375 -305 -279 -301 -247 -251 -230 -331 -342 -250 -253 -249 -166 -278 -289 -308 -284 -276 -266 -290 -294 -288 -302 -296 -284 -377 -322 -306 -307 -268 -410 -400 -289 -353 -318 -329 -307 -324 -293 -310 -391 -343 -284 -296 -266 -314 -269 -259 -239 -231 -214 -245 -311 -268 -210 -222 -177 -117 -100 -84 -134 -281 -243 -248 -228 -271 -218 -350 -345 163 250 -186 -347 -285 -324 -286 -262 -289 -230 -268 -350 -364 -338 -277 -233 -335 -178 -194 -102 -112 -123 -49 5 -100 8 13 -57 -92 -167 -227 -243 -244 -261 -361 -292 -279 -238 -299 -319 -267 -56 -300 -194 -237 -198 -209 -184 -275 -199 -203 -326 -301 -262 -287 -248 -271 -299 -347 -399 -380 -266 -297 -370 -364 -277 -307 -309 -331 -299 -317 -281 -346 -372 -325 -267 -318 -328 -376 -325 -249 -203 -188 -142 -263 -207 -184 -247 -277 -270 -239 -215 -224 -173 -275 63 233 -84 -227 -201 -226 -165 -176 -284 -256 -201 -223 -190 -218 -255 -157 -167 -200 -68 -159 -67 -23 -1 26 -4 50 179 -28 -124 -175 -243 -302 -322 -305 -429 -278 -290 -347 -258 -260 -240 -250 -308 -233 -223 -197 -268 -219 -219 -202 -209 -207 -258 -262 -256 -184 -207 -245 -275 -179 -213 -269 -235 -237 -273 -207 -219 -238 -219 -290 -375 -261 -276 -251 -262 -247 -332 -251 -274 -237 -247 -288 -352 -224 -288 -184 -207 -157 -159 -157 -153 -178 -238 -273 -239 -211 -245 -278 -102 263 163 -217 -287 -258 -235 -190 -247 -172 -210 -222 -157 -162 -201 -129 -116 -121 -116 -91 -50 -67 -52 12 82 44 55 4 -91 -145 -297 -204 -311 -333 -398 -355 -388 -323 -348 -321 -325 -329 -294 -289 -327 -243 -265 -208 -282 -279 -303 -256 -281 -238 -262 -215 -275 -268 -250 -264 -228 -214 -245 -204 -210 -175 -298 -249 -277 -233 -261 -265 -249 -243 -304 -294 -329 -300 -286 -275 -296 -274 -266 -262 -302 -244 -317 -285 -251 -252 -188 -202 -197 -214 -286 -262 -337 -292 -347 -284 -306 -30 307 -69 -186 -183 -230 -177 -222 -175 -225 -142 -157 -104 -113 -67 -74 -69 -42 -11 20 130 60 134 112 114 108 96 -21 -2 -136 -117 -253 -222 -332 -287 -362 -319 -329 -306 -292 -297 -313 -294 -319 -338 -310 -310 -313 -264 -280 -246 -299 -242 -293 -216 -280 -263 -254 -182 -252 -213 -305 -161 -299 -183 -300 -179 -257 -165 -241 -167 -237 -158 -253 -172 -253 -201 -272 -201 -297 -218 -302 -182 -265 -159 -270 -133 -234 -235 -314 -211 -326 -191 -323 -234 -267 -81 203 -121 -294 -216 -315 -201 -294 -242 -297 -244 -231 -143 -183 -105 -158 -67 -94 -48 -24 17 85 54 131 46 95 21 -35 -75 -164 -161 -263 -188 -340 -231 -333 -255 -311 -272 -302 -254 -296 -257 -316 -288 -307 -279 -304 -256 -324 -247 -306 -308 -301 -291 -334 -292 -328 -313 -284 -289 -290 -276 -270 -271 -244 -229 -242 -243 -224 -237 -214 -246 -242 -241 -216 -215 -194 -200 -198 -205 -170 -214 -204 -203 -226 -220 -188 -230 -155 -235 -209 -233 -288 -235 -291 -221 -285 -201 -253 -136 307 -114 -202 -148 -300 -225 -294 -240 -303 -232 -211 -207 -191 -159 -138 -104 -72 -36 -12 12 95 69 153 82 130 48 54 -13 -80 -88 -195 -167 -273 -228 -279 -253 -309 -273 -291 -272 -272 -264 -268 -255 -267 -255 -235 -249 -302 -261 -290 -272 -286 -268 -283 -266 -284 -281 -315 -300 -309 -286 -288 -285 -285 -265 -258 -232 -260 -242 -219 -223 -188 -208 -190 -198 -166 -192 -183 -191 -180 -184 -179 -189 -187 -171 -144 -155 -62 -147 -155 -172 -247 -209 -275 -210 -291 -162 -245 -134 289 -146 -211 -126 -272 -185 -264 -217 -267 -215 -240 -196 -209 -158 -185 -103 -96 -34 -32 16 69 76 149 88 130 76 72 20 -62 -72 -140 -137 -178 -186 -242 -213 -214 -218 -211 -206 -183 -204 -184 -213 -211 -224 -252 -252 -257 -228 -316 -241 -288 -244 -268 -249 -277 -256 -288 -265 -285 -267 -307 -260 -318 -254 -299 -222 -231 -204 -244 -193 -228 -190 -208 -181 -198 -171 -191 -165 -135 -157 -135 -158 -228 -168 -244 -130 -245 -94 -183 -57 396 -63 -165 -118 -212 -188 -221 -218 -251 -235 -256 -230 -225 -194 -186 -139 -141 -65 -94 -24 -13 4 66 14 76 -24 -25 -92 -158 -153 -276 -213 -298 -248 -269 -245 -284 -227 -250 -216 -243 -222 -229 -217 -217 -210 -209 -192 -224 -193 -194 -190 -182 -207 -274 -235 -285 -259 -264 -271 -268 -274 -268 -266 -270 -264 -262 -270 -254 -263 -275 -265 -271 -275 -260 -293 -304 -286 -277 -266 -266 -238 -168 -192 -131 -210 -186 -214 -217 -191 -257 -167 -196 -122 10 -13 118 -106 -196 -133 -262 -171 -239 -185 -186 -179 -176 -173 -184 -155 -188 -95 -179 -65 -95 8 249 57 98 28 115 -28 -5 -117 -200 -186 -284 -216 -294 -208 -285 -177 -260 -229 -273 -237 -241 -114 -219 -176 -203 -177 -194 -176 -189 -125 -205 -191 -212 -128 -251 -141 -215 -186 -192 -165 -206 -67 -213 -113 -292 -165 -261 -175 -247 -202 -263 -213 -265 -175 -307 -230 -304 -202 -301 -177 -290 -277 -307 -255 -298 -221 -282 -212 -257 -237 -256 -123 -169 -165 -183 -134 -209 -193 -264 -130 -289 -100 -213 -95 187 150 -127 -103 -212 -167 -237 -140 -216 -102 -187 -137 -147 -119 -173 -130 -200 -48 -161 12 -73 4 0 81 60 45 40 -91 -152 -181 -234 -250 -277 -252 -317 -284 -278 -364 -356 -290 -291 -294 -255 -246 -244 -206 -226 -253 -241 -240 -233 -231 -216 -160 -181 -172 -167 -167 -154 -148 -145 -125 -150 -119 -93 -112 -93 -127 -116 -124 -196 -237 -181 -180 -195 -190 -191 -218 -223 -256 -195 -184 -197 -231 -191 -150 -136 -162 -131 -194 -239 -312 -271 -170 -218 -136 -227 100 318 -104 -197 -144 -174 -142 -158 -134 -152 -117 -125 -90 -124 -130 -135 -29 -32 11 -36 102 47 111 112 101 137 70 41 -34 -102 -148 -218 -294 -288 -230 -271 -258 -228 -267 -299 -320 -258 -227 -301 -311 -270 -245 -257 -283 -237 -213 -218 -200 -271 -293 -237 -209 -211 -181 -189 -181 -188 -175 -178 -189 -188 -171 -239 -301 -193 -181 -232 -169 -181 -214 -200 -195 -221 -285 -226 -173 -271 -322 -296 -211 -207 -174 -147 -161 -147 -188 -311 -328 -279 -251 -346 -315 -263 -40 300 89 -275 -186 -211 -181 -214 -137 -166 -254 -170 -104 -124 -69 -172 -135 -119 -77 -4 63 31 148 136 188 210 103 95 -71 -85 -115 -192 -212 -211 -240 -300 -226 -224 -292 -285 -337 -301 -213 -245 -229 -251 -218 -230 -331 -229 -185 -315 -313 -291 -234 -215 -191 -210 -287 -193 -152 -308 -250 -237 -252 -199 -157 -199 -152 -169 -159 -153 -146 -158 -122 -238 -286 -164 -150 -167 -137 -211 -139 -187 -147 -263 -326 -270 -187 -90 -91 -237 -211 -192 
#III[uV]
38440 32619 30642 24071 23087 16376 15349 8708 7654 942 -75 -67 -37 -8 -46 -47 -43 -160 -15 -103 2 -96 -39 -112 -134 -381 -65 235 53 6 25 -8 66 4 29 -17 24 17 30 0 -7 -35 19 -51 0 -80 -20 -56 -16 -38 -19 -39 -37 -61 -32 -67 -17 -77 -59 -74 -49 -84 -24 -82 -58 -56 -34 -6 -19 -13 8 -12 -1 -9 -6 -14 0 -7 6 13 8 -6 16 15 25 29 18 -1 25 9 20 10 11 -36 -16 -41 -31 -72 -45 -60 -54 -65 -46 -31 -57 -71 -56 -93 -61 -103 -55 -5 -38 -82 -54 -96 -70 -119 -77 -101 -79 41 -83 -234 -82 49 61 84 94 29 104 62 97 68 86 87 83 70 61 30 51 31 58 59 46 18 37 -21 39 10 32 10 11 5 -5 -43 -38 -67 -57 -80 -71 -78 -82 -101 -83 -98 -74 -103 -59 -86 -73 -72 -59 -53 -58 -56 -45 -37 -14 -18 -8 11 18 20 21 30 18 2 16 -4 -2 24 -12 24 -7 -11 -20 -21 -41 -35 -51 -55 -62 -64 -68 -70 -62 -6 -80 -37 -48 -116 -85 -124 -119 -114 -129 -72 -152 -367 -162 -316 -103 126 -36 -77 -23 -64 -36 -98 -27 -90 -29 -88 -36 -48 -26 -42 -23 -56 -34 -59 -17 -51 -7 -41 13 -16 35 -30 -8 -46 -15 -33 -42 -49 -57 -59 -76 -109 -109 -139 -107 -93 -100 -96 -92 -105 -93 -92 -143 -69 -146 -93 -141 -115 -120 -100 -113 -67 -94 -62 -88 -49 -75 -44 -88 -5 -109 -9 -60 -112 -66 -92 -47 -51 -40 -41 -18 2 -19 32 -39 -65 -63 -124 -85 -129 -92 -149 -147 -162 -212 -475 -170 88 -129 -137 -112 -123 -125 -129 -147 -152 -138 -164 -130 -118 -107 -112 -89 -87 -75 -78 -59 -60 -52 -23 -28 -22 -28 1 -13 -30 -12 -38 -33 -58 -45 -57 -34 -79 -44 -41 -46 -74 -63 -95 -71 -90 -79 -92 -92 -90 -101 -163 -118 -163 -122 -158 -135 -164 -129 -137 -123 -124 -114 -115 -107 -114 -108 -122 -92 -98 -76 -69 -49 -52 -47 -48 -43 -41 -45 -43 -48 -68 -48 -54 -48 -42 -47 -58 -22 15 -18 -17 -29 -54 -48 -86 -105 -70 -146 -47 -116 -332 -255 -338 -43 77 -79 -83 -79 -75 -59 -82 -84 -93 -89 -156 -98 -112 -79 -134 -38 -69 4 -51 -27 -15 -16 -11 19 8 11 11 3 -5 15 -24 17 -28 8 -34 5 -10 -8 -11 54 10 -12 -10 -32 -53 -58 -62 -50 -72 -41 -76 -103 -91 -35 -84 -13 -56 -19 -68 -27 -59 -23 -74 1 -90 -31 -67 -32 -79 -70 -50 -42 -54 1 -37 27 -19 45 -19 17 -22 19 -21 -15 -40 50 -25 52 2 77 17 132 37 44 -51 -2 -54 11 -88 -26 -77 -1 -148 -237 -380 -82 201 31 -60 -53 -95 -76 -115 -41 -115 -61 -97 -86 -86 -56 -67 -48 -56 -19 -40 -19 -39 37 -12 0 -18 96 17 28 5 38 4 48 11 28 -10 49 2 -30 -67 -47 -48 -40 -46 -20 -70 -44 -73 -88 -88 -88 -138 -117 -93 -118 -140 -103 -106 -71 -86 -84 -94 -70 -96 -119 -135 -116 -114 -77 -73 -50 -61 -99 -87 -55 -61 -38 -51 -6 -38 -51 -22 -23 -33 -41 -22 14 21 15 -43 -44 -90 -53 -96 -85 -70 -95 -2 -81 -269 -388 -205 150 8 -87 -59 -46 -51 -32 -35 -62 -69 -68 -77 -98 -59 -48 -81 -30 -59 -35 -36 -92 9 10 3 53 -17 -14 -14 13 -4 -4 -20 -2 -22 -54 -66 -58 -46 5 -11 13 16 -22 -29 8 -93 -43 -65 -49 -72 -87 -105 -77 -79 -87 -88 -85 -146 -104 -109 -92 -81 -101 -123 -149 -147 -113 -166 -172 -145 -75 -93 -67 -44 -50 -73 -76 -53 -44 -59 -51 -62 -31 -111 -25 -65 -58 -34 -26 -43 -25 -31 -34 -49 -42 -66 20 -71 -306 -372 -467 -36 182 -50 -62 -82 -112 -102 -130 -86 -84 -97 -112 -92 -71 -83 -80 -89 -137 -148 -109 -102 -77 -57 -38 -50 -19 -17 -36 -42 -41 -52 -113 -55 -31 -58 -2 -15 -3 -69 -80 -14 -21 -29 48 -42 -60 -67 -58 -44 -47 -65 -64 -67 -75 -79 -69 -147 -102 -94 -82 -51 -177 -167 -71 -124 -95 -110 -98 -110 -93 -102 -164 -130 -77 -87 -73 -119 -73 -66 -47 -39 -32 -56 -80 -65 -23 -50 -4 44 66 18 -22 -107 -71 -39 -66 -29 -35 -67 -164 -278 -388 -234 166 87 -80 -37 -52 -97 -42 -85 -172 -174 -171 -121 -126 -199 -99 -109 -88 -104 -162 -103 -109 -181 -65 -61 -25 -20 -21 -57 -27 -27 -29 -119 -49 -37 0 -45 -62 -18 143 -52 27 -7 5 -2 21 -60 0 -2 -101 -68 -32 -59 -39 -53 -64 -119 -152 -152 -73 -92 -155 -139 -82 -122 -100 -131 -123 -125 -87 -131 -164 -128 -61 -113 -127 -152 -115 -66 -46 -17 20 -90 -85 -91 -84 -106 -108 -66 -17 -20 69 -134 -351 -457 -174 212 103 -48 33 -16 -87 -76 -53 -60 -59 -73 -123 -50 -83 -101 -40 -107 -97 -76 -97 -76 -117 -49 55 -47 -26 -47 -58 -114 -84 -76 -185 -48 -68 -93 -36 -30 -35 -25 -86 -10 -4 14 -50 -34 -10 -13 11 2 -49 -34 -24 24 7 -22 -46 25 -5 -47 -23 -16 -51 -2 -16 -26 -19 -83 -153 -62 -68 -54 -61 -46 -120 -59 -93 -60 -78 -116 -150 -54 -114 -29 -46 -18 -24 -65 -58 -23 -58 -86 -46 -26 -32 4 -138 -247 -431 -56 216 18 39 15 15 26 6 4 24 31 -18 31 22 6 -24 -8 -18 -63 -89 -43 -27 -34 -1 -26 -18 -36 -74 -21 -35 -86 -118 -106 -135 -68 -104 -68 -88 -84 -43 -46 -73 -9 -33 26 -40 -32 -49 -15 -28 -12 -26 15 -28 -26 -17 -27 6 19 1 31 27 38 -46 -10 -42 0 -28 -42 -30 -41 -103 -79 -100 -88 -81 -68 -81 -83 -64 -75 -99 -51 -108 -96 -69 -65 -46 -63 -85 -74 -107 -80 -122 -92 -124 -32 -109 -295 -307 -131 235 131 18 0 -1 -11 -32 22 0 18 35 6 39 51 31 34 50 41 -15 -4 -13 -31 5 -7 -9 10 14 5 -8 -21 -73 -82 -106 -78 -82 -60 -72 -67 -101 -68 -96 -116 -102 -99 -103 -53 -61 -43 -57 -40 -78 -62 -61 -50 -44 -47 -46 -31 -74 7 -73 -12 -54 4 -35 8 -26 -7 -25 -7 -58 -28 -70 -62 -86 -55 -107 -60 -105 -68 -59 -26 -82 -68 -115 -72 -118 -116 -133 -90 -124 -96 -184 -268 -474 -167 149 -18 -77 -31 -56 -15 -82 -22 -60 -16 -40 20 -39 2 -15 34 -3 67 18 54 22 76 14 69 20 89 14 49 -6 37 -66 27 -73 11 -58 -18 -49 20 -46 9 -67 -51 -79 -12 -73 -2 -95 -7 -70 -18 -81 -59 -103 -42 -98 -65 -62 -47 -61 22 -37 -34 -21 2 -11 19 2 -15 -5 -33 -33 -23 -10 -14 -8 16 -8 20 20 -13 -6 -25 -26 -28 6 -35 3 -60 -83 -45 -86 -57 -97 -45 -103 -77 -56 -173 -382 -203 94 -28 -75 -56 -71 -38 -89 -54 -44 -50 -63 -34 -37 -18 -4 -1 6 20 33 21 33 40 27 36 55 40 55 24 28 35 -19 -5 -25 -16 -52 -23 -45 -23 -26 -31 -34 -27 -40 -29 -33 -31 -101 -36 -70 -48 -67 -56 -69 -47 -67 -56 -100 -73 -74 -70 -74 -57 -65 -44 -51 -14 -39 -32 -17 -20 11 -3 2 5 35 17 32 16 18 8 23 16 7 9 25 3 79 10 -40 -18 -65 -41 -75 -57 -94 -87 -30 -153 -326 -160 37 -55 -31 -3 -56 -18 -92 -55 -86 -56 -69 -42 -70 -25 -14 -15 -10 3 12 15 2 31 11 39 25 55 54 54 74 55 65 42 7 27 26 26 26 25 34 17 30 7 0 -18 -45 -41 -54 -15 -93 -31 -79 -42 -70 -50 -75 -60 -88 -69 -80 -74 -105 -65 -116 -59 -107 -37 -52 -14 -51 -11 -35 -13 -18 -12 -24 -6 -29 -9 6 -8 -36 -20 -50 -13 -62 -15 -70 -57 -4 -88 -290 -80 154 -32 2 -11 -24 -44 -59 -67 -91 -77 -89 -66 -75 -65 -60 -51 -74 -55 -87 -63 -89 -69 -78 -61 -68 -49 -62 -55 -67 -48 -74 -53 -69 -42 -81 -30 -52 -24 -42 -24 -36 -14 -30 -22 -8 0 -21 11 -4 0 0 -7 -66 -19 -77 -40 -54 -67 -56 -55 -61 -25 -75 -70 -62 -65 -64 -34 -85 -76 -81 -38 -80 -58 -117 -91 -96 -50 -97 -41 -14 -17 -13 -35 -63 -2 -34 14 -38 -20 26 -56 -170 -128 -360 8 214 -2 -19 47 -11 52 1 49 -8 40 -28 34 -66 -7 -94 6 -84 31 -56 31 -34 60 12 13 31 64 -23 4 -52 12 -48 2 -59 4 -29 22 -28 31 -16 53 1 68 8 91 1 66 12 46 4 39 -6 46 -36 39 -15 44 13 25 -11 19 -22 35 -86 -29 -61 -46 -61 -25 -79 -72 -83 -55 -127 -84 -130 -101 -129 -111 -129 -142 -140 -118 -135 -110 -133 -101 -99 -106 -107 -73 -38 -30 -80 -94 -76 -80 -107 -80 -112 -57 -1 -123 -322 -398 -225 188 79 -48 -37 -37 -35 -26 -54 -31 -36 -48 -58 -85 -113 -58 -119 -89 -109 -90 -134 -108 -108 -88 -88 -108 -129 -92 -88 -88 -89 -71 -121 -91 -86 -166 -162 -97 -102 -98 -64 -57 -68 -46 -47 -66 -58 -47 -49 -43 -30 24 6 -8 26 18 18 35 28 63 30 71 95 71 83 59 58 41 -18 -66 -28 -23 -38 -35 -35 -79 -76 -109 -54 -58 -68 -103 -67 -33 -45 -82 -84 -101 -115 -201 -152 -79 -94 22 -138 -317 -426 -244 147 116 -15 -15 -7 -19 -38 -7 -33 -9 -39 -63 -39 4 10 6 -44 16 -48 -16 -58 -36 -45 -32 -34 -10 -49 -40 -65 -125 -115 -56 -87 -91 -72 -87 -119 -136 -94 -69 -136 -151 -125 -100 -101 -119 -84 -62 -54 -39 -94 -110 -72 -46 -50 -19 -24 -15 -21 -10 -22 -30 -31 -14 -78 -123 -39 -10 -63 -17 -27 -60 -48 -49 -75 -119 -74 -48 -122 -171 -130 -84 -76 -32 -35 -54 -77 -86 -144 -160 -129 -105 -166 -101 -87 -286 -378 -373 -38 191 -25 -17 -49 -5 -27 -103 -40 -5 -8 6 -54 -65 -34 -42 6 3 -44 27 -27 23 42 7 23 -47 -28 8 -36 -33 -33 -45 -106 -39 -36 -86 -84 -135 -88 -35 -59 -62 -69 -60 -68 -145 -66 -9 -115 -105 -91 -47 -20 -4 -20 -71 3 27 -70 -50 -41 -59 -10 20 -7 34 17 26 28 38 21 59 -36 -96 11 6 -1 16 -26 12 -20 14 -85 -111 -73 -29 32 44 -135 -98 -55 
#avR[uV]
18796 19082 15090 15328 11375 11602 7699 7855 3917 4066 181 173 189 114 153 107 168 192 180 196 190 211 140 119 -21 -460 65 348 156 268 201 262 238 238 205 210 192 172 173 148 134 145 120 93 70 0 13 -53 13 -24 61 108 127 256 236 328 314 326 318 323 338 318 349 315 314 302 293 296 283 285 271 270 269 273 272 259 264 260 244 258 260 269 258 262 258 256 256 268 251 251 231 231 245 261 242 268 262 271 259 271 261 271 262 256 255 268 244 280 240 252 220 173 207 176 214 275 232 309 232 305 175 254 104 -431 59 177 102 247 169 244 171 198 177 177 151 153 140 134 109 129 77 60 32 -25 -8 -72 -18 -51 0 32 87 181 171 293 249 354 310 337 326 328 327 321 314 319 322 317 314 318 304 328 312 318 315 308 300 299 311 299 285 281 277 259 266 266 263 261 262 283 259 274 286 239 277 247 269 255 272 259 276 269 280 263 275 256 261 250 270 230 255 215 240 262 268 307 270 312 231 308 140 -85 174 17 155 390 237 311 261 310 255 284 229 258 195 236 165 178 120 134 60 55 8 -47 -12 -74 3 -10 33 128 131 276 212 312 270 310 300 302 308 301 310 315 307 301 305 292 295 298 277 298 294 300 319 276 317 279 310 298 307 288 287 269 288 261 279 263 284 259 280 228 302 223 264 295 261 283 248 248 225 241 210 204 199 165 211 187 238 312 255 298 224 293 148 246 114 -447 111 392 194 288 258 281 281 273 268 275 249 248 208 214 153 154 85 72 33 -38 -7 -93 -8 -75 40 55 112 187 187 279 240 296 274 285 284 275 267 290 270 265 267 283 265 283 258 277 262 280 263 279 285 316 293 307 292 294 287 308 284 297 286 293 283 292 290 288 290 280 279 276 269 265 244 244 240 225 235 232 235 224 228 246 223 221 222 217 202 193 197 168 195 142 199 183 214 249 212 249 174 271 138 -215 37 -51 173 304 228 294 258 290 288 258 263 236 241 257 175 199 132 153 77 45 23 -46 -1 -95 4 -32 67 95 124 205 192 251 227 251 270 253 283 278 276 254 262 252 279 238 254 226 234 254 221 251 219 256 272 258 276 278 329 280 322 256 303 269 275 258 281 256 288 258 306 244 289 256 259 237 235 251 168 238 230 211 227 199 147 209 153 196 167 214 169 201 99 196 166 169 178 131 148 162 125 228 207 234 149 228 98 199 -103 -457 19 345 213 236 125 236 144 214 135 198 111 174 45 163 20 123 20 38 -43 -69 -58 -128 -114 -106 -90 22 10 162 101 239 119 244 142 245 185 242 225 247 178 256 183 236 178 230 122 245 245 258 244 260 232 289 248 246 216 273 240 255 205 238 218 258 182 256 228 307 258 270 197 247 216 226 228 229 231 231 194 219 191 217 171 212 206 218 173 157 149 124 128 107 131 203 190 237 173 245 203 239 134 -342 -384 52 344 336 271 258 214 232 217 215 199 210 197 215 193 184 107 141 39 34 -15 -65 -13 -120 -26 -29 19 142 187 241 239 259 263 282 251 269 271 307 285 287 232 255 235 221 276 261 224 283 239 262 260 255 301 302 267 266 273 274 270 314 270 289 281 265 271 271 280 278 272 302 301 288 256 267 249 238 234 253 236 227 235 229 204 222 212 234 196 213 236 178 196 160 193 252 236 265 207 256 219 270 39 -412 -234 220 379 267 243 294 280 273 273 247 226 237 202 205 142 161 94 105 77 56 -4 -61 -49 -97 -10 -2 90 125 202 215 240 256 319 277 264 272 246 243 228 296 302 243 242 235 191 257 259 274 255 253 243 257 262 254 264 257 249 303 270 259 265 242 321 316 253 291 270 273 258 269 246 259 309 278 245 252 230 255 232 226 216 212 198 217 271 236 199 197 175 139 134 93 123 227 207 229 195 256 201 316 263 -302 -444 68 431 329 284 267 236 240 209 225 264 277 252 216 169 235 128 139 58 60 42 -2 -59 10 -41 -43 44 81 157 198 230 230 246 302 267 261 238 276 287 258 128 273 207 233 200 208 194 245 200 202 275 266 245 257 228 244 267 287 323 304 229 251 292 294 236 246 258 265 238 254 237 280 290 261 236 262 265 300 267 216 180 179 152 218 165 138 204 224 216 206 206 214 208 207 -239 -462 -2 333 252 202 182 168 240 218 174 192 160 182 194 132 125 149 48 106 18 -15 -47 -64 -53 -75 -151 4 111 152 214 245 279 267 336 254 255 300 239 244 223 237 265 228 221 205 243 202 213 195 215 209 234 244 244 196 210 233 252 191 210 246 223 229 247 206 210 225 209 249 298 230 242 224 231 224 272 221 227 206 208 230 277 196 231 169 184 148 146 124 124 166 209 229 215 198 228 280 33 -386 -379 188 396 267 255 198 255 186 213 224 170 178 192 145 127 125 104 87 41 35 8 -34 -96 -61 -56 -18 82 127 260 193 293 290 339 302 320 289 295 287 281 286 273 265 291 239 248 221 261 263 278 248 267 232 249 223 260 254 241 250 232 224 246 220 224 195 274 244 256 234 247 243 234 222 253 254 279 255 245 241 255 232 233 225 252 218 262 236 216 220 165 170 155 177 232 222 276 246 284 267 251 -117 -461 4 304 249 239 176 221 169 208 153 158 113 131 70 93 95 58 29 4 -109 -68 -136 -118 -129 -105 -100 17 7 144 120 249 212 295 246 309 280 288 275 256 263 262 260 271 280 259 260 261 237 249 224 271 222 253 185 250 238 232 158 229 197 267 165 262 177 272 181 239 169 228 163 224 154 224 158 218 170 228 174 244 187 249 148 235 145 229 99 176 199 255 153 260 146 261 186 175 -52 -440 37 368 206 276 185 266 234 256 232 201 134 162 116 138 69 87 66 23 16 -76 -27 -120 -8 -88 12 46 120 171 185 260 207 306 245 296 261 282 263 277 264 273 261 282 262 267 273 267 255 276 243 270 299 260 261 282 271 279 280 252 265 260 287 251 254 233 231 236 253 226 229 211 229 225 229 211 208 189 208 194 216 181 207 201 191 212 206 191 212 157 205 167 211 245 206 242 198 233 162 225 49 -498 12 250 134 263 197 258 220 259 205 188 182 159 142 119 95 70 35 15 -2 -78 -59 -136 -62 -116 -29 -26 33 108 100 210 185 264 225 266 245 283 262 269 261 259 248 251 241 246 240 219 233 251 243 255 247 252 240 248 243 250 253 264 263 272 251 250 256 252 243 232 225 240 225 211 213 193 206 192 200 184 200 199 200 189 188 191 198 191 176 157 156 102 152 135 162 215 188 238 181 243 118 230 58 -453 66 230 99 257 184 236 208 221 187 197 168 174 137 149 90 89 26 27 -15 -63 -69 -148 -73 -124 -56 -60 7 90 99 177 165 211 207 246 227 227 231 224 218 201 213 199 217 212 215 229 231 229 220 269 225 248 223 232 224 239 226 244 230 244 230 254 227 260 224 245 203 204 197 218 187 210 183 199 174 186 168 176 160 138 153 117 148 202 161 212 122 210 65 181 13 -541 23 242 102 214 183 209 195 221 201 210 192 180 161 148 107 111 39 57 -3 -30 -36 -111 -49 -115 -6 -8 68 126 125 242 188 261 221 234 223 243 211 223 204 221 209 210 210 201 199 205 192 213 199 192 190 182 203 241 225 246 238 236 237 240 247 238 254 233 229 231 237 222 246 232 227 230 256 220 264 245 240 229 241 217 217 161 183 124 192 154 212 200 198 238 157 210 93 -95 -51 -299 110 303 132 252 195 233 211 187 204 172 193 170 172 154 91 131 68 53 7 -277 -41 -115 1 -109 35 20 149 188 188 258 222 270 209 255 179 246 240 259 253 233 141 219 211 207 223 195 209 195 149 207 211 209 152 232 160 208 208 198 177 201 77 202 130 249 150 230 152 216 189 223 177 224 147 243 188 239 152 237 122 226 206 237 196 230 165 215 161 208 184 203 86 150 150 143 87 171 153 211 90 232 72 212 33 -348 -350 14 197 252 143 218 122 198 88 160 121 129 95 144 87 144 19 101 -57 18 -50 -67 -135 -114 -90 -84 37 87 135 190 205 232 216 257 238 235 281 275 241 240 244 222 217 210 183 202 220 212 216 208 209 201 173 184 168 180 176 163 166 159 157 165 154 141 148 135 157 146 145 186 204 167 168 176 172 173 179 185 202 168 155 162 179 158 133 113 120 88 143 182 211 195 131 171 147 158 -259 -531 -17 271 202 166 134 154 124 133 113 108 85 105 98 115 31 37 -8 14 -94 -71 -119 -141 -120 -160 -86 -59 29 77 128 185 231 231 202 227 212 192 223 239 252 211 193 233 236 207 194 206 223 195 182 191 180 224 238 200 186 186 171 176 173 177 170 167 173 172 164 200 239 173 176 200 160 167 184 176 170 184 226 189 148 210 236 231 169 168 157 129 133 108 144 239 248 215 198 263 264 219 -102 -490 -275 255 282 199 172 190 134 152 202 149 102 119 72 145 102 101 56 7 -61 -53 -134 -150 -176 -188 -99 -83 47 70 120 174 195 195 217 247 206 205 249 243 270 256 195 216 198 216 187 196 259 196 180 257 261 245 210 204 189 200 251 195 166 273 225 216 222 194 168 195 169 178 172 167 166 169 152 220 237 170 153 166 146 198 145 177 154 221 270 233 173 107 113 169 161 164 
#avL[uV]
-38228 -34005 -30527 -25717 -23003 -18083 -15362 -10458 -7699 -2740 -34 -36 -66 -50 -41 -18 -51 24 -78 -21 -97 -33 -41 24 111 516 16 -350 -118 -139 -119 -125 -168 -122 -124 -92 -114 -99 -109 -74 -61 -45 -74 -7 -34 60 8 68 5 41 -16 -24 -35 -82 -93 -113 -144 -105 -114 -105 -131 -96 -156 -95 -113 -109 -120 -143 -127 -132 -141 -125 -133 -129 -131 -119 -132 -124 -127 -139 -136 -129 -141 -142 -148 -150 -142 -133 -144 -133 -131 -123 -131 -103 -108 -103 -107 -81 -95 -90 -89 -86 -95 -104 -85 -81 -79 -69 -74 -48 -68 -82 -74 -26 -66 -65 -63 -64 -58 -76 -27 -158 10 391 32 -125 -97 -187 -155 -144 -164 -146 -161 -140 -140 -142 -133 -120 -101 -87 -77 -54 -60 -31 -30 22 -19 41 -29 -23 -67 -98 -94 -150 -120 -144 -125 -118 -119 -103 -110 -102 -95 -83 -98 -84 -101 -81 -108 -98 -100 -105 -113 -114 -106 -107 -121 -121 -132 -126 -132 -138 -146 -148 -147 -153 -145 -143 -142 -134 -141 -137 -129 -141 -129 -119 -120 -113 -106 -108 -101 -90 -90 -80 -79 -72 -88 -110 -67 -79 -84 -43 -69 -60 -45 -70 -18 -99 44 318 34 228 0 -290 -91 -97 -112 -106 -100 -68 -93 -61 -75 -52 -55 -52 -40 -35 -12 14 21 68 19 76 3 36 -27 -51 -92 -115 -100 -121 -123 -129 -118 -114 -110 -105 -97 -75 -72 -45 -72 -76 -72 -77 -69 -70 -76 -80 -51 -85 -48 -69 -49 -62 -63 -68 -58 -84 -73 -83 -73 -94 -85 -96 -74 -110 -69 -104 -87 -62 -80 -72 -88 -85 -82 -89 -91 -103 -85 -106 -76 -44 -71 -63 -63 -51 -42 -34 36 -1 101 580 72 -262 0 -40 -45 -48 -46 -39 -24 -23 -20 0 -6 -18 4 6 24 29 39 77 48 92 43 55 1 -11 -34 -94 -83 -117 -110 -119 -111 -99 -107 -94 -107 -85 -101 -101 -98 -86 -85 -70 -75 -70 -71 -70 -62 -71 -67 -35 -57 -30 -54 -28 -42 -31 -45 -45 -50 -53 -56 -59 -64 -57 -64 -48 -70 -64 -77 -80 -85 -83 -85 -76 -85 -85 -83 -79 -77 -71 -75 -69 -75 -76 -65 -53 -81 -95 -83 -58 -77 -50 -70 -60 -26 -71 22 -100 18 357 172 279 -54 -210 -54 -84 -69 -88 -99 -67 -68 -48 -53 -11 -13 -14 -6 23 -9 29 -15 62 21 59 9 24 -48 -54 -70 -111 -99 -121 -125 -107 -148 -105 -148 -113 -142 -119 -124 -117 -180 -127 -117 -105 -92 -87 -66 -78 -71 -73 -104 -72 -60 -70 -137 -76 -151 -85 -137 -83 -117 -85 -123 -72 -145 -61 -129 -72 -120 -68 -76 -81 -85 -85 -85 -90 -135 -91 -147 -85 -87 -87 -91 -82 -72 -76 -122 -81 -89 -100 -141 -98 -188 -93 -107 -42 -61 -73 -112 -51 -54 -56 -48 11 230 514 52 -324 -130 -72 -23 -46 -14 -20 -36 -12 -9 -14 42 -16 31 -11 26 23 36 64 43 94 29 62 44 2 -77 -94 -72 -124 -88 -125 -107 -131 -114 -113 -149 -125 -66 -77 -55 -82 -58 -80 -45 -69 -89 -73 -56 -63 -49 -41 -35 -52 -19 -30 -43 -47 -49 -54 -45 -58 -38 -56 -24 -51 -42 -48 -40 -68 -70 -67 -39 -49 -74 -69 -68 -71 -91 -79 -47 -89 -85 -83 -55 -61 -85 -78 -76 -20 -32 -33 -54 -46 -22 -69 -29 -118 -6 373 483 127 -285 -174 -70 -84 -72 -77 -84 -81 -53 -52 -47 -50 -22 -47 -17 -9 3 27 34 59 76 52 5 12 -49 -58 -82 -109 -130 -126 -128 -126 -123 -117 -94 -104 -98 -108 -120 -119 -127 -123 -121 -108 -118 -71 -87 -82 -92 -73 -85 -72 -75 -73 -71 -71 -71 -47 -56 -63 -71 -71 -59 -43 -28 -28 -50 -26 -21 -34 -71 -63 -74 -85 -79 -71 -60 -73 -84 -70 -63 -64 -83 -33 -79 -57 -74 -63 -78 -47 -77 -102 -92 -95 -71 -78 -125 -81 210 485 468 -83 -326 -95 -74 -85 -55 -60 -38 -58 -49 -45 -16 -33 -17 -18 13 14 64 82 84 107 83 91 34 38 -30 -49 -74 -75 -89 -88 -74 -96 -108 -91 -121 -110 -112 -96 -90 -111 -104 -95 -132 -96 -84 -86 -83 -93 -86 -79 -82 -76 -75 -69 -72 -41 -58 -59 -71 -82 -28 -32 -72 -52 -63 -54 -55 -51 -53 -52 -31 -41 -64 -60 -60 -38 -61 -63 -72 -76 -75 -66 -75 -68 -82 -61 -84 -102 -117 -60 -44 -33 -50 -85 -48 -106 -74 -107 -8 359 514 141 -340 -230 -81 -105 -78 -46 -72 -48 -3 -7 2 -16 10 32 10 12 37 48 100 78 112 130 69 67 -3 -25 -62 -56 -94 -94 -101 -61 -96 -102 -119 -104 -96 -115 -171 -97 -124 -110 -104 -102 -113 -77 -100 -99 -61 -81 -98 -84 -84 -82 -85 -53 -47 -38 -59 -56 -29 -42 -56 -31 -53 -33 -26 -33 -52 -41 -21 -34 -72 -46 -37 -35 -46 -58 -55 -76 -91 -40 -18 0 -38 -32 -27 -53 -89 -91 -156 -3 383 574 132 -326 -203 -64 -116 -71 -54 -52 -47 -50 -35 -36 -4 -27 0 1 5 27 63 64 96 90 115 74 34 33 -35 -40 -63 -37 -76 -76 -29 -90 -76 -79 -92 -99 -85 -99 -67 -106 -106 -113 -83 -75 -98 -87 -116 -106 -80 -96 -104 -116 -110 -100 -91 -115 -100 -87 -94 -102 -85 -100 -92 -92 -90 -62 -34 -68 -69 -70 -69 -77 -45 -65 -43 -58 -45 -27 -25 -57 -29 -62 -56 -60 -54 -12 -18 -65 -60 -49 -72 -79 -89 -143 87 378 513 -52 -360 -147 -157 -111 -139 -113 -111 -115 -103 -112 -82 -96 -80 -67 -34 -37 -6 29 63 50 69 56 29 29 -27 -36 -73 -80 -119 -80 -80 -71 -58 -93 -69 -92 -74 -80 -103 -97 -90 -112 -99 -130 -100 -107 -102 -113 -112 -107 -104 -123 -109 -107 -107 -104 -120 -127 -124 -133 -133 -126 -102 -114 -96 -117 -101 -89 -94 -80 -49 -67 -64 -61 -61 -69 -66 -53 -68 -55 -51 -70 -49 -45 -56 -61 -47 -38 -13 -32 -35 -51 -46 -53 -48 -109 -43 280 461 96 -329 -223 -133 -88 -109 -76 -79 -93 -79 -71 -92 -40 -76 -86 -52 -40 -40 23 45 71 69 88 49 55 -1 -11 -83 -64 -118 -90 -92 -61 -75 -81 -82 -92 -73 -81 -55 -78 -62 -52 -52 -55 -53 -78 -78 -79 -92 -81 -67 -46 -79 -81 -82 -43 -79 -75 -77 -88 -76 -79 -95 -94 -92 -91 -94 -75 -92 -71 -68 -58 -55 -38 -49 -45 -41 -48 -45 -22 -73 -52 -53 1 -1 -45 -39 11 -29 -5 -37 -20 50 227 576 107 -296 -89 -80 -69 -91 -105 -66 -99 -55 -54 -50 -73 -40 -36 -32 -58 -9 -58 24 -27 42 -53 33 -58 -38 -127 -96 -129 -124 -131 -103 -143 -93 -139 -97 -117 -101 -148 -101 -138 -90 -93 -74 -127 -78 -126 -66 -116 -82 -135 -69 -86 -63 -103 -65 -91 -79 -97 -84 -160 -98 -100 -100 -117 -109 -141 -115 -102 -101 -89 -87 -97 -97 -93 -88 -116 -90 -123 -105 -93 -96 -76 -86 -82 -100 -79 -81 -57 -20 -71 -57 -60 -47 -65 -39 -23 -70 105 536 146 -195 -45 -74 -55 -75 -81 -62 -62 -61 -53 -31 -44 -31 -33 -31 -16 -12 -13 13 13 42 0 37 -12 -28 -47 -95 -68 -126 -119 -117 -108 -114 -110 -102 -113 -100 -113 -109 -100 -100 -100 -92 -98 -84 -93 -49 -94 -74 -87 -75 -77 -71 -86 -74 -84 -56 -76 -80 -73 -69 -85 -76 -88 -77 -102 -91 -88 -92 -91 -105 -101 -98 -104 -118 -113 -124 -112 -108 -100 -113 -111 -101 -94 -98 -81 -110 -83 -37 -67 -58 -63 -62 -48 -51 6 -91 86 471 87 -142 -8 -104 -89 -75 -90 -40 -52 -33 -41 -34 -36 -22 -26 -33 -1 -5 4 22 22 72 13 53 -1 10 -45 -86 -90 -144 -124 -154 -135 -128 -133 -134 -135 -132 -128 -126 -120 -122 -114 -106 -94 -80 -84 -73 -98 -64 -89 -64 -79 -63 -73 -63 -67 -56 -63 -62 -59 -48 -64 -43 -67 -42 -73 -63 -87 -70 -85 -78 -81 -85 -77 -74 -79 -66 -73 -73 -70 -31 -59 -63 -70 -59 -49 -52 10 -86 59 488 48 -236 -26 -108 -83 -86 -64 -66 -50 -36 -38 -23 -30 -17 -4 -10 18 26 43 80 65 122 77 117 49 55 2 -16 -21 -70 -57 -74 -70 -65 -79 -60 -82 -72 -83 -78 -86 -77 -94 -77 -83 -95 -96 -91 -108 -92 -94 -92 -96 -71 -98 -64 -88 -77 -68 -77 -82 -73 -108 -60 -61 -68 -69 -62 -97 -52 -56 -54 -99 -50 -88 -34 -52 -42 -82 -35 -77 -69 -78 -52 -69 -30 -104 -74 -110 -90 -63 -125 -4 175 122 420 -61 -312 -64 -111 -133 -108 -145 -94 -139 -79 -127 -64 -112 -27 -40 5 -39 36 -27 181 -2 84 -45 45 -27 -33 -123 -76 -97 -89 -120 -98 -106 -83 -93 -100 -137 -108 -150 -103 -110 -111 -157 -109 -180 -98 -154 -107 -109 -106 -135 -100 -110 -89 -110 -92 -137 -109 -107 -91 -53 -84 -92 -59 -53 -68 -41 -62 -75 -52 -34 -49 -32 -26 -30 -21 0 -21 22 -15 3 -13 -9 -13 0 -7 -4 -29 -12 -21 11 -46 -52 -11 27 -28 -16 -24 15 -32 6 -105 76 416 473 161 -240 -186 -35 -81 -33 -72 -24 -39 -37 -37 -10 -28 20 12 33 39 95 72 93 134 148 138 111 108 62 53 1 -29 -36 -49 -55 -37 -50 -52 -15 -15 -47 -43 -48 -62 -65 -53 -56 -65 -60 -62 -72 -67 -71 -78 -104 -97 -77 -110 -101 -95 -110 -100 -125 -105 -130 -141 -127 -130 -123 -117 -103 -79 -52 -62 -66 -59 -60 -60 -29 -35 -19 -43 -33 -30 -12 -28 -41 -22 1 19 4 -4 45 16 -6 -15 -90 24 367 585 192 -245 -188 -71 -55 -71 -47 -37 -50 -29 -35 -23 -1 -28 -19 -27 0 26 35 72 72 114 87 113 68 55 -7 -1 -34 -44 -22 -28 -59 -48 -37 -42 -46 -29 -23 -35 -44 -14 -4 -9 -22 -27 -22 -34 -44 -54 -60 -41 -36 -45 -58 -55 -71 -69 -75 -72 -77 -66 -63 -62 -70 -41 -26 -57 -80 -52 -67 -63 -46 -52 -48 -35 -23 -38 -37 -13 10 -17 -21 -26 -54 -38 -26 3 -7 -11 -3 -10 -19 -6 -56 -43 266 529 417 -98 -285 -80 -72 -58 -63 -55 -24 -44 -47 -53 -41 -31 -2 -24 4 -8 27 60 46 95 70 62 44 24 12 -13 -66 -59 -72 -72 -74 -44 -73 -75 -59 -58 -33 -62 -71 -63 -52 -56 -48 -47 -20 -48 -83 -42 -51 -53 -69 -86 -91 -85 -72 -100 -103 -83 -74 -76 -66 -88 -99 -92 -110 -102 -106 -104 -112 -100 -120 -83 -46 -93 -81 -81 -85 -79 -82 -73 -87 -46 -51 -61 -64 -78 -89 16 -6 -40 
#avF[uV]
19432 14923 15436 10389 11627 6481 7662 2603 3782 -1326 -146 -137 -123 -63 -111 -88 -116 -216 -101 -175 -93 -178 -99 -143 -89 -56 -81 2 -37 -129 -81 -137 -69 -115 -80 -117 -77 -73 -63 -73 -72 -99 -46 -85 -36 -59 -22 -15 -18 -17 -45 -84 -92 -174 -142 -214 -170 -221 -204 -217 -206 -222 -193 -219 -200 -193 -172 -153 -155 -153 -129 -144 -136 -144 -141 -140 -131 -136 -117 -119 -123 -139 -117 -119 -109 -106 -114 -135 -106 -118 -100 -107 -114 -157 -133 -165 -154 -189 -163 -181 -171 -184 -166 -151 -170 -187 -164 -210 -166 -203 -152 -91 -132 -149 -148 -210 -169 -244 -174 -229 -147 -95 -115 39 -91 -51 -4 -60 -14 -99 -6 -51 -16 -36 -10 -10 -7 -14 -8 -42 0 -6 27 57 39 50 37 9 29 -8 -19 -83 -77 -142 -129 -209 -184 -219 -206 -224 -217 -219 -218 -236 -223 -232 -213 -237 -196 -229 -211 -213 -202 -194 -193 -192 -189 -177 -153 -154 -144 -121 -119 -117 -115 -107 -117 -139 -116 -140 -144 -101 -148 -105 -140 -136 -152 -145 -169 -161 -178 -172 -184 -176 -182 -178 -182 -120 -188 -136 -156 -218 -198 -246 -225 -241 -212 -208 -184 -233 -208 -246 -155 -100 -145 -213 -148 -203 -155 -215 -135 -197 -120 -184 -110 -125 -80 -99 -48 -70 -29 -21 -6 -1 -7 -25 -6 -76 -39 -161 -112 -191 -147 -180 -181 -188 -197 -195 -212 -240 -235 -255 -233 -216 -223 -221 -208 -228 -217 -219 -267 -190 -268 -209 -261 -235 -244 -219 -229 -185 -215 -177 -206 -168 -198 -163 -206 -118 -233 -119 -177 -232 -180 -211 -160 -163 -143 -151 -118 -100 -114 -58 -135 -142 -167 -249 -191 -246 -181 -258 -184 -245 -216 -132 -183 -129 -194 -247 -213 -233 -235 -233 -244 -251 -228 -247 -202 -196 -157 -161 -110 -101 -73 -39 -40 0 -35 19 -41 -44 -77 -92 -103 -162 -129 -177 -162 -186 -176 -180 -160 -205 -168 -163 -168 -197 -180 -213 -183 -206 -191 -209 -200 -207 -218 -280 -235 -276 -238 -266 -245 -277 -239 -252 -236 -239 -227 -233 -225 -230 -226 -232 -209 -211 -192 -184 -159 -161 -155 -149 -150 -146 -152 -144 -150 -174 -148 -151 -147 -140 -136 -140 -115 -72 -111 -83 -121 -132 -143 -189 -185 -177 -196 -171 -156 -141 -210 -228 -119 -93 -173 -210 -188 -201 -189 -191 -195 -188 -188 -246 -161 -184 -125 -177 -67 -75 -8 -15 -19 36 -14 7 -18 -41 -53 -94 -93 -129 -101 -143 -122 -147 -135 -165 -133 -135 -137 -134 -99 -111 -136 -120 -141 -167 -155 -172 -147 -182 -167 -186 -216 -207 -191 -203 -171 -171 -166 -185 -158 -173 -158 -184 -142 -197 -176 -172 -168 -187 -182 -156 -149 -166 -83 -147 -94 -120 -79 -114 -60 -121 -62 -114 -95 -137 -46 -119 -10 -96 -24 -71 9 -37 -41 -120 -64 -155 -95 -183 -94 -172 -50 -211 -126 -56 -72 -21 -83 -163 -102 -189 -129 -193 -98 -185 -101 -159 -87 -146 -52 -112 -46 -61 7 4 14 34 85 43 45 -25 67 -68 -29 -115 -30 -119 -35 -113 -70 -129 -75 -121 -112 -178 -127 -154 -119 -150 -76 -175 -156 -184 -188 -196 -182 -248 -212 -193 -197 -242 -197 -207 -156 -184 -172 -199 -144 -200 -204 -255 -216 -221 -156 -178 -146 -159 -189 -180 -157 -162 -125 -148 -100 -137 -124 -122 -121 -134 -118 -95 -63 -45 -52 -86 -98 -169 -135 -190 -150 -175 -173 -121 -128 -30 -98 -180 -59 -161 -201 -173 -142 -154 -132 -134 -146 -157 -149 -165 -171 -136 -90 -132 -42 -61 -18 5 -62 67 21 17 29 -84 -104 -131 -109 -133 -134 -156 -127 -151 -176 -203 -186 -178 -112 -136 -108 -98 -154 -152 -105 -211 -152 -180 -167 -181 -216 -229 -191 -193 -202 -203 -199 -267 -213 -226 -210 -193 -212 -227 -252 -249 -221 -276 -279 -253 -184 -204 -175 -152 -155 -182 -175 -153 -150 -159 -141 -158 -129 -200 -117 -156 -162 -114 -118 -112 -115 -150 -144 -169 -135 -177 -94 -189 -249 -72 -233 -137 -53 -171 -168 -209 -224 -213 -234 -188 -176 -192 -185 -172 -124 -142 -107 -120 -142 -139 -79 -46 -33 5 -23 -36 -59 -75 -128 -139 -151 -167 -244 -180 -155 -180 -124 -133 -116 -200 -211 -132 -137 -139 -59 -160 -174 -188 -171 -160 -157 -178 -179 -177 -189 -187 -176 -262 -212 -200 -194 -159 -293 -283 -180 -238 -206 -219 -203 -217 -193 -206 -277 -236 -180 -191 -170 -217 -171 -162 -143 -135 -123 -150 -195 -167 -116 -136 -91 -36 -16 -33 -78 -194 -157 -144 -147 -150 -127 -209 -255 -57 -69 -210 -90 -98 -202 -161 -157 -193 -136 -177 -261 -269 -255 -199 -180 -267 -138 -151 -95 -108 -142 -76 -52 -141 -28 -23 -41 -56 -94 -142 -135 -136 -145 -240 -170 -158 -119 -172 -190 -142 43 -176 -83 -122 -96 -106 -81 -168 -99 -103 -213 -185 -147 -173 -144 -162 -181 -233 -276 -266 -169 -194 -262 -252 -179 -214 -204 -231 -211 -221 -184 -238 -268 -226 -164 -216 -228 -264 -220 -158 -125 -102 -61 -177 -146 -138 -165 -192 -189 -152 -116 -122 -52 -204 -143 -111 -129 -7 -49 -137 -66 -96 -186 -166 -127 -141 -125 -146 -189 -104 -125 -150 -54 -133 -82 -49 -49 -25 -61 0 117 -37 -75 -111 -150 -208 -203 -191 -307 -163 -179 -220 -147 -145 -138 -137 -197 -122 -114 -91 -159 -127 -114 -108 -99 -102 -154 -148 -140 -79 -100 -133 -161 -76 -109 -158 -129 -127 -162 -105 -118 -132 -119 -186 -264 -161 -172 -153 -161 -146 -226 -155 -184 -148 -162 -202 -251 -139 -201 -107 -127 -87 -91 -111 -106 -100 -148 -180 -142 -118 -138 -137 -120 8 -133 -136 -35 -119 -97 -87 -116 -72 -102 -109 -66 -65 -110 -48 -47 -57 -70 -50 -34 -65 -71 -15 27 4 26 -10 -54 -91 -186 -113 -173 -210 -258 -231 -261 -196 -226 -194 -207 -206 -169 -168 -200 -126 -149 -91 -161 -155 -176 -135 -155 -125 -144 -99 -151 -147 -133 -146 -111 -97 -122 -86 -91 -68 -172 -129 -159 -116 -145 -154 -140 -142 -203 -186 -215 -194 -184 -171 -189 -179 -165 -169 -201 -148 -212 -190 -160 -159 -117 -132 -141 -144 -196 -171 -229 -192 -235 -158 -208 -163 0 -100 24 -26 -105 -88 -111 -93 -129 -59 -78 -42 -39 -30 -17 -8 -5 11 35 85 22 65 49 41 56 44 -15 4 -60 -55 -131 -121 -203 -184 -234 -199 -206 -183 -182 -182 -207 -181 -208 -227 -206 -205 -208 -158 -171 -145 -178 -141 -185 -139 -171 -157 -149 -115 -149 -122 -189 -77 -186 -98 -177 -87 -146 -78 -133 -87 -131 -82 -155 -100 -162 -132 -179 -128 -202 -139 -204 -125 -162 -92 -176 -101 -175 -153 -216 -164 -230 -141 -223 -165 -226 -175 -135 -144 -72 -117 -196 -116 -175 -129 -190 -133 -146 -79 -112 -42 -98 -32 -55 -7 -14 42 51 54 77 61 55 45 -7 7 -75 -55 -135 -75 -203 -102 -203 -121 -184 -145 -175 -116 -171 -123 -191 -169 -193 -146 -188 -129 -210 -127 -188 -163 -191 -175 -218 -167 -213 -189 -173 -168 -175 -126 -153 -153 -133 -113 -126 -112 -110 -126 -109 -140 -137 -132 -113 -114 -101 -91 -103 -92 -75 -114 -105 -114 -126 -124 -90 -132 -75 -147 -146 -139 -187 -146 -194 -133 -194 -139 -155 -155 -37 -159 -54 -88 -188 -141 -183 -139 -196 -143 -127 -129 -127 -97 -88 -61 -38 -19 -3 16 64 45 93 61 78 42 55 13 -12 -32 -83 -65 -146 -116 -152 -135 -181 -148 -168 -147 -149 -148 -151 -141 -154 -142 -134 -140 -202 -148 -180 -160 -176 -162 -176 -157 -175 -169 -207 -186 -191 -178 -181 -171 -175 -154 -154 -123 -149 -137 -118 -122 -88 -105 -94 -96 -65 -87 -75 -87 -80 -87 -77 -86 -89 -81 -59 -75 8 -68 -98 -95 -156 -125 -175 -133 -192 -124 -138 -144 -18 -153 -87 -90 -152 -94 -160 -118 -180 -135 -163 -126 -139 -100 -127 -64 -55 -24 -21 10 41 46 76 60 70 58 49 37 -3 -9 -32 -40 -56 -71 -117 -93 -93 -96 -92 -90 -74 -93 -77 -102 -105 -121 -148 -147 -155 -121 -204 -136 -184 -143 -169 -150 -176 -158 -188 -167 -182 -171 -206 -162 -217 -157 -203 -129 -141 -109 -147 -102 -131 -101 -113 -96 -111 -89 -110 -87 -64 -82 -85 -89 -139 -90 -153 -73 -157 -75 -94 -72 52 -72 -5 -75 -105 -99 -123 -131 -155 -151 -173 -153 -157 -130 -131 -102 -100 -58 -84 -39 -50 -29 -11 -27 -1 -42 -46 -71 -110 -104 -172 -130 -186 -150 -169 -143 -182 -129 -151 -120 -142 -123 -132 -116 -124 -116 -109 -96 -122 -91 -99 -95 -90 -107 -170 -127 -181 -150 -159 -169 -162 -164 -164 -146 -172 -167 -162 -167 -159 -149 -180 -170 -176 -157 -170 -176 -211 -188 -187 -158 -182 -139 -91 -104 -72 -123 -124 -108 -125 -88 -147 -93 -85 -89 -80 -71 -121 -49 8 -68 -141 -62 -125 -66 -92 -64 -92 -66 -106 -60 -127 -51 -137 -29 -89 19 96 44 31 44 64 -7 13 -26 -111 -90 -168 -101 -171 -102 -172 -86 -145 -103 -150 -102 -129 -30 -108 -54 -97 -42 -96 -54 -88 -39 -100 -76 -109 -41 -143 -50 -115 -70 -89 -70 -109 -23 -118 -38 -189 -97 -161 -111 -154 -113 -171 -142 -174 -115 -217 -157 -217 -152 -215 -144 -210 -209 -223 -187 -217 -165 -208 -156 -178 -171 -181 -98 -104 -98 -131 -114 -142 -136 -186 -105 -200 -79 -107 -109 -67 -123 -176 42 -66 -107 -137 -89 -126 -64 -120 -84 -91 -84 -116 -107 -157 -53 -140 -38 -91 -43 -67 -13 -23 -21 -24 -100 -141 -136 -161 -169 -183 -161 -219 -187 -182 -265 -259 -194 -197 -196 -160 -151 -156 -126 -136 -160 -150 -144 -141 -137 -123 -68 -87 -90 -70 -74 -68 -56 -58 -31 -59 -24 0 -20 -4 -34 -29 -41 -107 -151 -105 -102 -117 -112 -113 -149 -149 -182 -125 -121 -132 -167 -129 -92 -90 -122 -108 -148 -177 -256 -211 -124 -156 -57 -182 -108 -54 -174 -25 -13 -94 -78 -82 -76 -95 -62 -79 -49 -82 -96 -87 -12 -10 9 -40 59 0 47 26 32 46 18 3 -22 -75 -94 -141 -209 -202 -143 -179 -175 -150 -177 -209 -228 -176 -148 -218 -231 -198 -172 -179 -201 -161 -137 -136 -119 -183 -202 -154 -128 -131 -100 -107 -98 -104 -92 -100 -110 -110 -93 -159 -212 -116 -95 -147 -93 -104 -137 -124 -122 -148 -202 -150 -111 -196 -247 -213 -148 -141 -103 -91 -107 -112 -137 -228 -244 -204 -178 -256 -208 -175 -163 -39 -142 -157 2 -118 -99 -131 -71 -96 -178 -105 -54 -66 -31 -113 -100 -77 -60 0 33 -6 87 54 106 126 55 59 -59 -57 -53 -114 -123 -122 -143 -203 -133 -130 -189 -184 -236 -194 -124 -152 -146 -160 -139 -149 -238 -148 -97 -215 -209 -191 -141 -118 -98 -115 -179 -95 -62 -189 -150 -139 -156 -105 -68 -103 -58 -75 -66 -62 -54 -68 -31 -137 -191 -76 -71 -84 -60 -118 -63 -104 -66 -174 -219 -172 -108 -29 -23 -186 -154 -123 
