ADC Sampling rate (Hz):
100
Fragment duration (sec):
21
Number of samples exported by each lead:
2099

#I[uV]
-113 -92 -68 -51 -27 -10 3 29 44 72 84 83 104 95 93 98 95 95 105 84 89 88 81 89 89 76 91 73 86 68 82 60 64 80 73 71 65 64 61 47 61 26 56 71 52 99 31 80 37 68 26 -71 52 -43 62 115 72 150 110 168 143 89 112 94 97 93 75 89 68 64 56 15 40 2 31 6 35 47 48 77 61 90 83 92 88 73 88 78 68 60 75 67 64 84 66 63 57 60 57 53 65 66 62 72 56 63 62 60 57 53 50 32 41 38 52 50 39 47 23 53 14 -20 28 -73 62 6 62 158 99 166 129 159 157 133 130 97 110 92 89 94 82 76 69 59 65 32 66 50 76 81 99 96 111 134 111 121 110 121 117 115 102 103 108 91 95 96 92 87 86 81 88 92 76 89 73 86 68 66 70 62 73 39 52 69 64 72 49 65 38 36 18 -22 49 2 59 37 97 160 121 186 175 128 179 123 157 115 143 124 116 124 120 111 98 85 91 75 106 66 106 115 112 141 129 147 132 148 124 132 109 118 125 87 106 81 104 101 105 102 95 112 93 100 94 92 92 57 84 49 75 41 71 87 65 85 33 73 52 47 64 -7 79 57 108 177 129 145 175 191 192 173 163 139 138 110 125 132 118 97 98 64 96 77 93 84 113 129 118 136 144 134 131 116 134 135 136 130 136 120 119 114 116 129 119 128 110 121 116 125 121 108 111 105 103 88 100 88 92 92 95 129 86 112 46 71 25 -92 -68 -108 31 65 68 119 107 114 115 96 93 88 75 77 63 68 37 28 45 14 31 -15 23 13 31 39 46 62 53 81 76 100 68 91 65 62 68 75 63 63 67 68 47 77 58 70 62 67 49 64 46 64 39 59 33 22 41 20 46 33 31 56 -3 -10 -9 -50 28 -20 32 71 87 147 135 191 169 187 176 109 139 128 132 131 113 130 111 90 93 56 93 78 102 102 104 118 115 138 122 174 136 147 146 150 134 127 129 123 110 132 99 117 110 109 96 106 103 105 89 77 88 77 72 62 64 63 70 101 56 83 58 92 23 30 3 -58 -23 -105 15 44 56 109 82 124 106 95 106 77 83 67 60 68 48 39 27 22 25 10 16 12 41 30 61 64 64 127 64 85 68 52 64 63 59 69 55 52 47 42 46 44 46 35 50 38 41 44 38 41 30 24 28 20 21 38 30 40 8 33 -4 -13 -24 -72 -100 -73 -2 18 61 104 96 98 107 79 89 54 54 44 47 29 39 27 9 -1 -7 -13 -4 -27 12 12 19 33 51 54 51 80 60 52 45 59 53 45 45 38 43 46 34 33 42 37 42 45 28 39 22 20 18 16 16 24 35 30 21 22 -1 -33 -27 -93 -48 -36 17 52 81 152 132 197 156 160 151 120 135 120 111 109 98 95 85 71 82 63 73 40 61 87 85 111 110 119 123 143 134 131 109 120 114 120 94 117 107 87 104 87 88 102 98 80 96 111 84 99 77 67 66 49 58 67 59 78 52 67 26 7 18 -46 38 -34 68 64 114 171 142 196 196 172 190 186 174 168 141 156 139 151 131 129 120 80 118 85 108 102 116 126 153 156 150 158 145 174 142 153 149 154 134 145 125 136 125 97 116 99 113 129 102 124 94 111 85 100 93 89 85 50 101 63 94 95 74 125 68 98 40 32 25 -35 34 -8 21 119 83 156 132 168 148 134 124 120 98 105 86 90 73 62 68 47 61 23 54 25 55 59 67 83 88 111 86 119 99 92 95 81 91 76 83 90 75 74 77 55 65 68 61 79 68 78 63 65 67 65 62 67 63 39 56 23 57 54 50 68 44 67 24 -20 -3 -79 7 4 44 81 119 192 139 209 193 185 174 146 145 140 139 145 123 123 107 101 98 64 81 62 83 79 100 124 98 130 123 152 118 132 135 138 134 117 124 133 118 122 113 121 114 118 109 101 102 108 104 100 99 90 108 82 81 63 80 49 72 75 71 93 55 72 28 9 -5 -75 -45 -29 35 13 70 96 104 122 111 95 98 75 69 77 58 69 46 49 41 27 27 7 28 7 36 45 48 71 58 70 81 82 77 97 83 85 74 85 68 57 55 79 47 42 49 56 47 54 56 62 62 72 41 37 34 34 28 0 37 8 21 40 77 38 43 51 8 -36 0 -93 -159 -36 29 7 85 119 104 149 124 114 108 76 107 92 79 86 63 54 36 37 23 2 26 2 25 37 33 47 53 68 62 70 61 83 67 70 64 61 57 53 64 56 61 48 53 49 45 54 51 54 51 44 46 30 34 23 36 17 44 46 50 36 42 39 7 -21 -6 -83 -18 31 67 56 108 195 146 203 180 191 175 173 160 140 133 137 124 117 97 94 99 64 88 70 118 65 112 89 115 132 126 153 142 158 134 147 142 113 132 111 135 114 135 111 111 123 122 111 123 115 110 104 108 122 107 111 95 72 86 57 95 79 87 108 70 106 38 -2 20 -67 14 37 44 75 117 183 144 217 176 178 189 152 162 157 152 141 127 112 117 103 96 77 85 59 105 98 112 120 131 150 134 165 148 153 154 144 139 143 130 126 133 115 113 105 113 111 100 108 94 84 95 97 83 85 71 50 65 41 49 37 58 45 62 62 34 69 14 13 16 -45 35 8 63 30 124 208 124 247 194 198 188 175 175 161 146 135 127 136 123 116 107 89 104 83 104 83 104 104 114 122 125 141 134 144 122 132 131 123 115 123 109 105 101 114 99 116 92 99 97 103 111 113 97 99 105 83 96 70 94 78 103 78 88 86 72 77 42 12 32 -49 46 48 59 79 118 218 146 230 182 179 177 149 159 145 148 139 117 116 106 98 104 95 96 81 94 90 107 110 122 137 129 147 126 169 132 138 104 114 99 71 86 60 65 29 43 27 18 27 20 27 5 -2 -14 -14 -15 -36 -14 -34 -34 -13 -26 -5 -35 -34 -53 -121 -24 -125 -272 -82 20 -36 39 52 55 79 75 47 61 45 29 44 16 26 4 6 -3 -27 -11 -31 -26 -11 2 5 11 23 28 44 36 47 38 34 40 20 32 23 33 24 32 28 37 25 26 22 20 30 9 11 11 8 1 -2 -3 0 9 22 6 19 -17 10 -21 -112 6 -118 -350 -54 34 -45 50 62 76 104 97 77 73 60 55 47 35 35 21 22 -7 -8 -8 -33 -4 -14 5 11 24 42 47 77 63 81 87 90 95 87 86 95 88 96 107 81 100 72 105 95 105 100 113 117 104 98 107 76 103 73 117 81 126 99 102 111 83 22 61 -31 98 75 81 71 156 211 179 237 217 205 216 185 191 164 179 154 152 153 143 123 119 100 108 87 121 100 126 116 141 151 147 174 176 185 184 197 202 187 202 187 209 203 220 229 219 227 224 220 224 232 228 230 239 224 229 226 231 221 238 239 243 272 216 277 193 194 203 93 206 145 183 165 199 306 216 317 259 259 269 250 250 232 237 220 203 210 195 181 186 158 188 144 196 175 212 208 209 249 235 245 243 250 255 244 243 235 240 240 236 230 219 223 217 220 213 221 217 216 213 217 208 169 196 172 188 164 190 206 173 212 150 195 127 67 135 45 -53 52 146 153 144 185 166 179 162 162 159 143 142 128 109 119 98 100 85 65 83 63 87 73 95 97 115 120 126 129 137 138 133 128 130 115 114 120 106 112 104 100 91 98 98 83 89 102 85 87 85 78 77 50 63 54 65 74 62 91 68 85 42 -6 31 -57 31 39 84 123 152 214 193 237 202 196 197 200 196 167 175 166 155 157 121 115 127 105 115 95 134 113 137 150 144 159 149 165 152 164 151 151 148 155 143 140 140 131 129 129 131 121 113 124 112 118 117 124 94 109 101 84 90 75 87 80 97 111 74 115 71 72 48 -22 75 -19 -339 -8 129 70 130 106 131 135 105 116 84 99 63 88 51 60 21 31 0 12 5 -16 13 1 36 30 42 58 56 69 65 67 71 73 57 67 56 67 44 32 22 18 22 14 10 1 7 12 11 5 6 4 3 4 -9 6 -19 -16 -18 -14 -12 -16 -29 -25 -20 20 -19 13 -40 -90 -28 -117 -28 -24 27 158 86 172 148 201 151 183 137 151 143 151 137 137 111 113 99 90 78 66 73 64 83 85 86 104 96 113 114 116 112 120 105 118 99 98 99 86 98 73 79 73 80 79 72 79 59 61 65 55 71 55 60 67 56 62 55 42 45 30 49 43 48 57 40 64 12 40 5 -47 2 -59 -107 -23 38 71 70 93 99 74 93 92 82 92 71 77 46 53 35 6 25 5 16 -8 6 2 12 19 37 45 39 62 50 67 65 54 41 42 51 52 43 33 31 30 38 51 24 31 28 29 21 22 27 24 31 18 23 36 17 29 28 0 24 1 19 36 9 40 7 24 -4 -63 0 -80 -240 -108 69 112 105 106 142 70 107 85 96 99 89 97 71 71 60 48 36 24 38 4 24 21 39 35 53 60 66 94 64 57 74 87 60 67 73 61 62 56 64 31 56 60 54 49 53 38 44 38 43 52 46 41 42 45 32 19 19 -4 14 12 12 24 17 46 15 6 -1 -41 -5 -119 -123 -152 82 132 128 112 185 30 170 87 169 33 151 74 133 138 116 111 102 1 103 -7 93 51 101 55 116 100 125 86 139 80 132 1 120 54 114 47 113 113 106 87 107 -5 103 105 95 62 78 22 74 14 80 112 77 75 70 0 63 24 69 1 62 46 60 47 61 33 29 31 -4 12 0 -98 4 -12 45 163 117 15 131 123 107 63 98 13 81 144 67 -41 38 -24 24 -24 23 18 22 89 38 16 67 50 67 -41 67 42 65 111 64 -10 64 0 58 -11 53 -11 59 24 48 -34 39 100 43 
#II[uV]
-76 3414 -152 3336 -229 3258 -308 3179 -387 3101 -464 -451 -453 -455 -459 -453 -461 -460 -456 -464 -465 -464 -472 -467 -465 -479 -464 -476 -471 -474 -484 -452 -474 -430 -463 -433 -459 -408 -454 -395 -447 -452 -452 -460 -465 -439 -486 -424 -485 -406 -444 -407 -444 -433 -434 -420 -432 -430 -439 -433 -440 -430 -445 -426 -439 -415 -449 -405 -463 -425 -442 -442 -444 -458 -446 -446 -447 -437 -434 -432 -436 -431 -429 -436 -422 -430 -422 -417 -430 -407 -440 -398 -429 -416 -431 -427 -428 -435 -423 -407 -414 -393 -409 -393 -406 -392 -388 -366 -391 -343 -382 -356 -394 -386 -397 -417 -420 -433 -424 -403 -432 -394 -426 -378 -429 -443 -446 -461 -458 -459 -463 -471 -466 -449 -469 -446 -460 -466 -465 -465 -458 -463 -463 -462 -449 -442 -438 -433 -435 -407 -429 -383 -420 -379 -421 -409 -411 -393 -404 -380 -398 -373 -394 -372 -395 -385 -417 -397 -440 -409 -411 -373 -424 -406 -411 -412 -407 -384 -407 -368 -400 -375 -419 -400 -410 -423 -427 -444 -449 -424 -432 -386 -434 -375 -442 -411 -443 -462 -449 -461 -445 -449 -447 -418 -438 -413 -431 -426 -453 -410 -419 -407 -421 -402 -405 -391 -386 -380 -380 -364 -382 -369 -379 -367 -382 -385 -397 -372 -424 -387 -363 -423 -379 -429 -391 -425 -396 -422 -407 -414 -397 -427 -391 -408 -381 -396 -377 -417 -370 -469 -417 -434 -428 -439 -436 -421 -424 -381 -421 -381 -425 -410 -442 -462 -440 -470 -458 -458 -473 -422 -467 -392 -461 -417 -464 -423 -459 -434 -464 -446 -463 -421 -456 -423 -453 -387 -472 -374 -465 -367 -417 -438 -418 -444 -413 -438 -419 -439 -428 -437 -424 -434 -425 -432 -419 -428 -398 -419 -372 -399 -382 -359 -378 -371 -386 -390 -395 -428 -414 -417 -408 -415 -413 -384 -403 -394 -392 -411 -408 -401 -410 -411 -418 -434 -434 -421 -435 -403 -431 -437 -440 -434 -453 -456 -447 -456 -458 -450 -464 -424 -434 -405 -427 -403 -418 -418 -408 -401 -408 -394 -414 -392 -400 -384 -405 -390 -409 -378 -424 -386 -401 -379 -404 -396 -407 -376 -396 -364 -389 -322 -401 -349 -406 -393 -413 -431 -437 -440 -468 -465 -420 -445 -425 -380 -429 -408 -433 -455 -432 -451 -445 -443 -442 -468 -455 -464 -438 -456 -428 -424 -432 -425 -427 -430 -410 -418 -402 -415 -397 -395 -404 -387 -392 -358 -380 -379 -373 -396 -376 -373 -389 -385 -399 -380 -406 -395 -402 -405 -413 -393 -408 -419 -412 -402 -404 -383 -408 -391 -424 -396 -414 -414 -437 -433 -437 -424 -440 -409 -423 -407 -408 -431 -407 -446 -409 -411 -423 -414 -425 -416 -399 -404 -384 -419 -395 -408 -405 -417 -404 -411 -399 -410 -396 -396 -380 -404 -366 -382 -365 -375 -402 -391 -410 -418 -410 -414 -410 -392 -413 -396 -408 -398 -405 -407 -405 -437 -415 -423 -405 -378 -392 -333 -396 -340 -390 -365 -398 -399 -407 -394 -430 -394 -419 -384 -412 -373 -426 -394 -438 -409 -410 -408 -429 -418 -435 -394 -421 -391 -419 -390 -418 -416 -419 -417 -442 -422 -459 -426 -468 -403 -420 -397 -413 -408 -406 -404 -412 -405 -412 -409 -410 -393 -399 -391 -395 -390 -396 -394 -401 -408 -369 -398 -360 -370 -366 -348 -364 -349 -364 -363 -376 -400 -385 -433 -390 -439 -382 -424 -366 -385 -394 -359 -399 -374 -415 -415 -426 -441 -447 -425 -440 -438 -426 -438 -430 -435 -433 -449 -436 -437 -429 -421 -418 -427 -421 -399 -403 -409 -396 -406 -386 -398 -385 -382 -400 -380 -386 -381 -396 -359 -384 -384 -392 -388 -394 -385 -388 -393 -371 -370 -375 -346 -382 -338 -390 -355 -413 -386 -431 -441 -425 -456 -439 -449 -434 -414 -437 -380 -432 -410 -431 -436 -430 -443 -435 -430 -453 -413 -449 -451 -386 -429 -394 -424 -406 -423 -396 -447 -393 -421 -391 -397 -380 -394 -356 -391 -351 -429 -344 -360 -402 -371 -396 -373 -406 -359 -412 -377 -396 -406 -405 -405 -408 -410 -432 -397 -430 -391 -431 -348 -394 -336 -407 -374 -403 -388 -412 -388 -430 -391 -423 -381 -426 -375 -421 -346 -448 -349 -446 -418 -379 -404 -394 -422 -401 -401 -397 -397 -397 -400 -396 -401 -394 -400 -396 -401 -395 -425 -390 -403 -426 -389 -408 -404 -405 -388 -405 -393 -401 -397 -404 -387 -401 -397 -419 -389 -430 -388 -424 -404 -407 -386 -415 -401 -404 -396 -398 -396 -384 -382 -376 -352 -360 -338 -373 -341 -385 -359 -393 -387 -393 -410 -392 -413 -398 -392 -399 -347 -405 -347 -409 -405 -425 -426 -434 -425 -464 -416 -472 -410 -442 -416 -437 -400 -427 -404 -430 -418 -424 -421 -418 -395 -410 -391 -417 -397 -415 -379 -426 -382 -378 -364 -370 -366 -367 -368 -374 -362 -366 -376 -367 -387 -369 -392 -377 -377 -370 -372 -361 -351 -351 -338 -359 -338 -373 -367 -384 -396 -411 -417 -414 -436 -411 -418 -402 -401 -417 -373 -420 -372 -424 -410 -427 -440 -441 -439 -433 -428 -420 -407 -413 -398 -410 -404 -407 -406 -418 -393 -410 -366 -385 -358 -375 -362 -375 -366 -366 -364 -369 -366 -365 -362 -370 -357 -378 -365 -395 -358 -410 -370 -409 -362 -411 -385 -398 -392 -386 -373 -393 -379 -388 -364 -388 -352 -400 -352 -436 -375 -414 -423 -405 -411 -398 -425 -382 -384 -386 -346 -372 -365 -376 -370 -399 -381 -410 -394 -409 -396 -384 -383 -376 -386 -385 -379 -394 -388 -387 -420 -390 -411 -386 -399 -387 -376 -386 -377 -376 -391 -389 -391 -395 -390 -403 -381 -395 -389 -395 -390 -391 -392 -387 -399 -392 -378 -384 -392 -376 -368 -377 -335 -371 -331 -372 -347 -376 -358 -379 -398 -384 -412 -390 -396 -386 -363 -394 -349 -405 -354 -393 -395 -415 -424 -425 -411 -424 -412 -418 -431 -416 -421 -414 -424 -423 -431 -413 -417 -419 -420 -398 -416 -406 -404 -403 -398 -397 -384 -391 -386 -389 -379 -367 -378 -371 -369 -363 -365 -364 -380 -375 -372 -375 -373 -371 -378 -370 -365 -355 -340 -346 -330 -353 -320 -365 -356 -380 -387 -398 -398 -407 -421 -397 -451 -402 -402 -408 -390 -411 -382 -411 -406 -418 -437 -426 -437 -416 -417 -417 -395 -409 -404 -408 -414 -403 -395 -402 -385 -391 -385 -374 -365 -366 -370 -360 -352 -365 -350 -361 -362 -369 -346 -367 -342 -373 -351 -364 -368 -373 -390 -373 -393 -387 -380 -400 -383 -399 -372 -398 -385 -397 -388 -390 -384 -391 -385 -392 -405 -395 -428 -418 -426 -423 -417 -424 -386 -428 -392 -422 -405 -436 -417 -443 -434 -435 -434 -442 -420 -443 -426 -440 -424 -445 -430 -443 -421 -454 -424 -450 -413 -436 -423 -425 -425 -430 -427 -429 -429 -426 -435 -436 -437 -429 -425 -431 -415 -429 -429 -429 -429 -412 -429 -420 -435 -419 -435 -411 -423 -406 -411 -388 -390 -389 -378 -390 -387 -382 -415 -390 -456 -406 -466 -410 -430 -412 -396 -415 -400 -422 -406 -425 -437 -445 -458 -453 -452 -446 -438 -434 -445 -445 -415 -453 -427 -442 -430 -439 -422 -432 -423 -437 -419 -431 -421 -425 -416 -431 -417 -440 -397 -436 -379 -440 -393 -416 -391 -407 -383 -402 -393 -403 -394 -408 -381 -399 -372 -395 -375 -414 -347 -376 -376 -377 -392 -407 -419 -430 -439 -438 -440 -435 -436 -440 -466 -453 -463 -439 -461 -427 -469 -454 -445 -455 -437 -447 -430 -445 -434 -449 -438 -448 -450 -441 -447 -436 -417 -435 -405 -414 -386 -403 -396 -398 -391 -396 -402 -398 -409 -397 -410 -395 -400 -391 -388 -394 -386 -393 -407 -405 -415 -408 -404 -404 -402 -402 -383 -407 -388 -411 -410 -424 -430 -442 -464 -449 -451 -440 -432 -429 -429 -452 -438 -445 -437 -445 -437 -438 -441 -442 -426 -431 -405 -420 -402 -415 -407 -425 -406 -433 -398 -393 -424 -395 -406 -389 -385 -391 -382 -392 -386 -388 -399 -391 -413 -394 -404 -397 -404 -393 -412 -394 -424 -403 -433 -404 -418 -405 -426 -389 -406 -393 -388 -377 -375 -381 -387 -375 -409 -371 -452 -399 -408 -400 -394 -402 -360 -391 -374 -400 -360 -408 -399 -417 -427 -419 -426 -432 -402 -428 -394 -409 -420 -416 -416 -422 -435 -426 -432 -431 -436 -412 -424 -417 -420 -415 -421 -413 -412 -407 -421 -387 -408 -384 -404 -386 -403 -389 -408 -386 -399 -392 -404 -385 -402 -376 -383 -357 -381 -334 -380 -371 -333 -376 -345 -384 -382 -378 -399 -381 -397 -376 -389 -363 -357 -373 -353 -391 -346 -412 -363 -420 -388 -421 -401 -419 -402 -423 -410 -417 -423 -431 -429 -434 -428 -429 -417 -431 -409 -412 -388 -398 -383 -394 -375 -372 -374 -371 -368 -359 -357 -367 -355 -364 -348 -373 -349 -376 -362 -385 -359 -365 -373 -352 -370 -344 -340 -345 -342 -344 -337 -354 -367 -377 -388 -391 -404 -397 -394 -397 -368 -403 -401 -403 -390 -400 -407 -395 -413 -400 -396 -409 -388 -406 -394 -394 -397 -406 -390 -399 -365 -407 -377 -403 -380 -388 -378 -369 -358 -367 -357 -367 -360 -363 -348 -369 -352 -375 -354 -379 -333 -380 -346 -383 -363 -385 -380 -387 -399 -388 -387 -387 -384 -375 -357 -379 -353 -390 -346 -404 -363 -423 -413 -406 -421 -399 -424 -402 -382 -409 -397 -399 -369 -407 -399 -408 -403 -408 -394 -395 -373 -382 -387 -382 -377 -382 -378 -385 -383 -370 -374 -376 -370 -364 -361 -362 -356 -361 -366 -371 -354 -376 -366 -371 -362 -367 -358 -366 -362 -366 -369 -375 -364 -381 -386 -398 -381 -393 -384 -379 -350 -381 -331 -351 -328 -342 -327 -349 -350 -363 -372 -387 -372 -391 -363 -393 -345 -396 -353 -372 -333 -390 -359 -384 -390 -375 -369 -386 -350 -389 -352 -397 -372 -409 -391 -417 -405 -428 -394 -415 -373 -419 -372 -398 -354 -381 -341 -382 -359 -384 -369 -378 -358 -383 -356 -396 -348 -398 -339 -412 -361 -396 -388 -410 -410 -414 -415 -415 -428 -423 -436 -425 -428 -429 -422 -434 -417 -441 -403 -445 -436 -459 -474 -464 -497 -466 -489 -471 -487 -470 -465 -476 -456 -477 -482 -481 -477 -484 -475 -488 -455 -517 -476 -490 -481 -485 -477 -488 -481 -481 -469 -481 -463 -473 -451 -466 -432 -464 -420 -462 -428 -448 -442 -447 -439 -446 -439 -452 -443 -450 -448 -449 -454 -459 -453 -459 -442 -467 -448 -482 -463 -482 -467 -464 -476 -464 -457 -453 -431 -442 -422 -448 -429 -451 -443 -464 -465 -475 -468 -482 -452 -488 -431 -479 -428 -470 -450 -467 -479 -469 -482 -474 -461 -472 -444 -472 -421 -469 -420 -481 -436 -475 -472 -473 -459 -470 -462 -475 -461 -471 -456 -462 -450 -458 -439 -465 -433 -460 -429 -465 -447 -461 -437 -462 -452 -466 -467 -459 -454 -463 -459 -459 -452 -461 -448 -455 -444 -450 -428 -432 -408 -431 -400 -427 -410 -437 -439 -448 -467 -473 -486 -475 -473 -461 -452 -445 -427 -469 -446 -451 -474 -484 -460 -487 -463 -488 -477 -478 -478 -480 -465 -483 -488 -481 -481 -487 -485 -482 -462 -492 -462 -468 -452 -460 -454 -453 -430 -453 -451 -451 -435 -450 -446 -439 -438 -438 -435 -437 -436 -437 -440 -439 -450 -443 -465 -444 -451 -444 -444 -433 -442 -429 -423 -428 -428 -433 -432 -455 -447 -502 -470 -503 -488 -498 -487 -486 -495 -482 -494 -487 -462 -471 -479 -492 -472 -507 -469 -509 -456 -487 -493 -478 -494 -470 -446 -474 -457 -466 -476 -463 -461 -461 -462 -463 -462 -445 -448 -451 -431 -455 -448 -457 -480 -464 -469 -468 -462 -468 -447 -464 -474 -469 -463 -473 -441 -476 -471 -488 -477 -500 -453 -480 -429 -467 -466 -462 -439 -454 -429 -448 -441 -455 -454 -457 -458 -465 -470 -475 -468 -475 -419 -475 -412 -477 -445 -460 -476 -462 -471 -459 -428 -455 -442 -469 -464 -478 -398 -484 -448 -528 -467 -517 -455 -499 -451 -480 -375 -475 -451 -457 -453 -467 -433 -470 -446 -482 -366 -473 -423 -454 -423 -456 -423 -450 -446 -444 -440 -453 -445 -461 -401 -443 
#III[uV]
37 3507 -83 3388 -201 3269 -311 3150 -431 3028 -549 -535 -558 -550 -553 -551 -556 -555 -562 -549 -555 -552 -553 -556 -555 -555 -556 -549 -558 -542 -567 -513 -538 -511 -537 -505 -525 -473 -515 -443 -509 -478 -508 -532 -518 -538 -517 -505 -522 -475 -471 -336 -496 -389 -496 -536 -505 -580 -550 -601 -584 -520 -557 -520 -536 -508 -524 -495 -531 -490 -498 -458 -484 -460 -478 -452 -482 -484 -483 -509 -498 -521 -512 -528 -510 -503 -510 -496 -499 -468 -516 -466 -494 -500 -498 -491 -485 -495 -480 -461 -479 -459 -471 -466 -463 -456 -451 -427 -448 -397 -433 -388 -435 -424 -449 -467 -460 -481 -447 -457 -446 -374 -455 -305 -491 -449 -509 -619 -557 -626 -592 -630 -624 -583 -600 -543 -570 -559 -555 -559 -541 -540 -533 -521 -514 -474 -505 -483 -512 -489 -529 -480 -532 -514 -532 -531 -522 -515 -521 -495 -500 -476 -502 -464 -491 -482 -509 -485 -526 -491 -499 -466 -501 -496 -485 -499 -476 -450 -477 -430 -474 -415 -471 -469 -475 -495 -476 -510 -488 -461 -451 -363 -484 -378 -501 -449 -541 -623 -570 -648 -620 -578 -627 -541 -595 -529 -575 -551 -570 -534 -540 -519 -519 -487 -497 -467 -493 -446 -486 -480 -495 -511 -508 -514 -514 -533 -522 -504 -533 -506 -488 -510 -485 -510 -496 -527 -501 -524 -503 -527 -491 -527 -485 -500 -473 -453 -461 -466 -446 -511 -489 -521 -494 -525 -469 -494 -476 -428 -486 -374 -504 -467 -550 -640 -569 -615 -633 -649 -666 -596 -631 -532 -599 -528 -589 -555 -577 -531 -562 -510 -559 -498 -550 -508 -567 -517 -590 -510 -609 -501 -548 -554 -552 -580 -550 -569 -555 -560 -547 -551 -541 -564 -545 -560 -529 -550 -515 -545 -494 -508 -493 -464 -482 -460 -487 -479 -488 -520 -510 -547 -494 -528 -459 -455 -428 -301 -324 -303 -439 -467 -478 -531 -526 -548 -550 -517 -529 -491 -506 -514 -504 -502 -491 -485 -493 -470 -489 -434 -488 -438 -466 -444 -474 -465 -471 -500 -484 -502 -476 -486 -479 -455 -469 -459 -469 -453 -477 -447 -471 -463 -460 -449 -466 -464 -457 -441 -442 -429 -428 -382 -434 -372 -447 -414 -459 -464 -469 -497 -464 -454 -411 -394 -453 -360 -462 -480 -520 -603 -567 -643 -614 -631 -618 -578 -594 -592 -571 -588 -542 -555 -543 -515 -521 -487 -504 -496 -505 -517 -502 -513 -519 -526 -514 -533 -516 -527 -519 -547 -511 -500 -519 -509 -509 -513 -505 -512 -513 -514 -509 -500 -511 -524 -501 -480 -493 -460 -481 -454 -489 -460 -484 -515 -493 -517 -495 -516 -463 -440 -427 -349 -384 -325 -423 -490 -465 -520 -506 -539 -532 -512 -506 -481 -467 -487 -456 -477 -454 -457 -432 -433 -425 -421 -413 -409 -421 -435 -428 -446 -429 -503 -466 -476 -478 -471 -475 -478 -470 -461 -469 -448 -456 -440 -451 -451 -452 -473 -465 -461 -447 -422 -430 -374 -426 -364 -418 -386 -420 -438 -437 -434 -438 -428 -414 -371 -387 -300 -326 -320 -436 -427 -472 -512 -526 -517 -542 -474 -511 -445 -473 -435 -466 -445 -459 -444 -452 -420 -452 -413 -463 -376 -433 -409 -433 -441 -458 -459 -463 -485 -472 -462 -456 -453 -453 -437 -440 -428 -440 -440 -435 -441 -412 -435 -403 -416 -394 -388 -386 -370 -382 -380 -393 -425 -420 -463 -411 -461 -380 -390 -338 -291 -345 -323 -416 -426 -497 -568 -558 -639 -604 -586 -591 -559 -561 -558 -542 -544 -531 -544 -521 -509 -511 -484 -492 -468 -482 -486 -489 -520 -507 -526 -509 -542 -519 -513 -509 -501 -501 -502 -490 -477 -491 -471 -496 -476 -483 -488 -486 -473 -467 -482 -460 -446 -459 -405 -456 -405 -472 -454 -491 -520 -478 -524 -466 -457 -452 -367 -475 -345 -501 -474 -545 -607 -572 -640 -632 -603 -643 -599 -623 -619 -528 -586 -534 -575 -538 -552 -517 -527 -512 -506 -499 -499 -497 -520 -510 -547 -502 -588 -490 -534 -545 -525 -546 -528 -541 -504 -538 -514 -521 -504 -522 -505 -521 -539 -535 -522 -525 -502 -517 -449 -488 -426 -492 -424 -504 -451 -506 -484 -505 -516 -492 -479 -467 -408 -447 -310 -483 -341 -467 -538 -463 -560 -526 -591 -550 -535 -522 -518 -496 -505 -482 -492 -468 -463 -465 -448 -456 -449 -444 -428 -481 -448 -475 -488 -493 -500 -492 -512 -501 -490 -499 -468 -492 -474 -503 -479 -505 -462 -501 -460 -473 -454 -477 -480 -473 -475 -462 -461 -451 -448 -439 -419 -423 -378 -429 -365 -443 -414 -443 -455 -438 -478 -417 -392 -394 -312 -407 -352 -449 -429 -528 -597 -564 -636 -627 -611 -638 -563 -617 -550 -581 -561 -560 -524 -535 -506 -528 -483 -506 -483 -501 -474 -511 -516 -515 -527 -539 -532 -544 -514 -513 -502 -505 -483 -492 -501 -493 -484 -480 -498 -482 -505 -479 -493 -480 -486 -474 -472 -461 -442 -459 -420 -440 -402 -454 -417 -457 -472 -483 -511 -470 -508 -439 -427 -396 -326 -372 -344 -455 -385 -494 -506 -531 -562 -552 -534 -531 -503 -490 -485 -472 -467 -457 -453 -448 -434 -445 -401 -438 -374 -421 -404 -423 -433 -434 -436 -448 -447 -447 -464 -449 -447 -444 -443 -447 -423 -451 -438 -458 -413 -459 -419 -459 -440 -454 -454 -449 -446 -435 -417 -423 -399 -417 -352 -437 -360 -457 -415 -491 -462 -449 -463 -407 -388 -383 -290 -226 -310 -402 -373 -462 -490 -503 -530 -534 -509 -518 -472 -491 -475 -456 -472 -449 -433 -431 -426 -410 -422 -417 -414 -411 -436 -420 -423 -440 -445 -438 -461 -451 -474 -462 -460 -468 -442 -453 -442 -460 -447 -452 -441 -440 -448 -437 -432 -436 -446 -428 -413 -424 -366 -406 -354 -409 -364 -421 -404 -429 -434 -427 -451 -398 -375 -380 -280 -376 -380 -472 -410 -501 -591 -562 -628 -605 -602 -600 -585 -578 -571 -549 -558 -539 -541 -521 -526 -512 -482 -507 -490 -516 -481 -519 -494 -519 -530 -523 -538 -534 -545 -524 -526 -510 -492 -503 -481 -499 -480 -499 -491 -486 -496 -497 -484 -495 -494 -480 -469 -464 -463 -454 -441 -448 -393 -451 -414 -476 -466 -486 -507 -477 -527 -436 -448 -423 -334 -422 -428 -455 -457 -529 -589 -563 -655 -603 -616 -606 -570 -579 -552 -562 -546 -535 -527 -521 -499 -498 -463 -476 -445 -480 -464 -478 -491 -492 -503 -500 -515 -510 -516 -523 -490 -507 -485 -503 -477 -497 -484 -486 -495 -486 -504 -487 -488 -494 -468 -495 -469 -482 -471 -468 -438 -455 -425 -441 -422 -450 -450 -458 -490 -452 -496 -438 -430 -441 -341 -463 -401 -486 -436 -560 -625 -568 -682 -630 -633 -631 -596 -619 -587 -587 -559 -572 -567 -566 -538 -561 -514 -555 -496 -541 -507 -529 -529 -545 -549 -554 -570 -560 -580 -559 -569 -560 -549 -546 -538 -538 -534 -530 -543 -511 -545 -513 -535 -516 -538 -522 -537 -503 -510 -494 -473 -486 -449 -485 -465 -485 -493 -478 -543 -479 -544 -452 -442 -444 -346 -462 -449 -481 -486 -543 -655 -591 -688 -635 -632 -624 -587 -594 -590 -594 -554 -571 -543 -549 -528 -544 -518 -529 -505 -531 -509 -539 -531 -548 -553 -560 -565 -566 -566 -568 -518 -544 -508 -515 -462 -493 -443 -468 -423 -446 -422 -426 -409 -419 -399 -401 -372 -399 -333 -361 -340 -362 -357 -372 -406 -404 -434 -402 -406 -381 -315 -415 -341 -181 -380 -459 -425 -467 -522 -509 -524 -530 -485 -508 -475 -474 -478 -466 -465 -452 -456 -438 -419 -425 -386 -409 -393 -417 -391 -414 -419 -427 -435 -432 -449 -437 -443 -438 -430 -428 -423 -425 -413 -426 -414 -431 -432 -432 -437 -428 -434 -413 -413 -414 -392 -408 -385 -408 -409 -433 -453 -449 -484 -432 -461 -418 -319 -436 -310 -102 -383 -480 -392 -495 -500 -514 -545 -539 -504 -505 -466 -476 -449 -450 -443 -446 -428 -426 -390 -385 -390 -390 -392 -394 -396 -415 -424 -439 -464 -452 -480 -479 -504 -489 -491 -483 -500 -481 -509 -501 -506 -504 -506 -509 -514 -510 -527 -502 -524 -498 -487 -484 -451 -484 -461 -492 -490 -497 -551 -502 -520 -484 -417 -463 -328 -489 -449 -481 -431 -565 -610 -596 -664 -637 -632 -648 -588 -620 -558 -588 -575 -568 -570 -566 -558 -546 -533 -540 -524 -533 -525 -544 -537 -556 -573 -561 -587 -584 -607 -571 -606 -586 -592 -588 -591 -599 -611 -607 -629 -611 -631 -610 -623 -601 -615 -586 -612 -573 -605 -600 -559 -607 -566 -623 -621 -621 -671 -597 -675 -570 -584 -566 -450 -580 -498 -575 -511 -611 -670 -637 -705 -680 -660 -688 -653 -674 -643 -654 -643 -634 -640 -629 -610 -615 -575 -619 -553 -608 -564 -610 -591 -604 -625 -608 -620 -614 -619 -615 -601 -611 -591 -605 -588 -609 -579 -595 -585 -603 -580 -578 -595 -570 -587 -557 -557 -553 -511 -541 -510 -542 -531 -567 -594 -564 -616 -548 -589 -524 -436 -538 -446 -349 -442 -546 -561 -540 -598 -566 -575 -571 -550 -566 -538 -536 -525 -516 -509 -497 -466 -493 -443 -487 -443 -476 -451 -465 -456 -483 -477 -493 -490 -500 -486 -503 -481 -505 -469 -493 -453 -487 -458 -487 -463 -476 -478 -485 -482 -478 -490 -472 -472 -461 -436 -457 -403 -453 -401 -470 -437 -486 -504 -475 -507 -441 -418 -433 -324 -440 -436 -484 -493 -560 -613 -602 -640 -611 -590 -593 -574 -579 -555 -558 -543 -537 -536 -507 -498 -498 -479 -492 -465 -499 -475 -499 -507 -506 -526 -521 -519 -529 -530 -523 -514 -516 -513 -509 -503 -506 -500 -504 -493 -512 -507 -511 -506 -505 -503 -496 -474 -475 -441 -452 -413 -433 -403 -437 -431 -461 -483 -461 -487 -462 -436 -441 -322 -472 -333 -32 -324 -520 -429 -514 -496 -506 -504 -492 -467 -474 -452 -460 -461 -461 -452 -439 -436 -427 -406 -420 -356 -433 -374 -434 -385 -423 -400 -438 -428 -449 -436 -450 -432 -440 -423 -452 -415 -442 -372 -435 -380 -418 -403 -420 -411 -421 -428 -427 -434 -429 -441 -428 -433 -420 -428 -415 -401 -422 -389 -432 -420 -429 -449 -444 -518 -447 -502 -430 -397 -442 -347 -448 -431 -504 -641 -568 -650 -633 -676 -639 -639 -654 -628 -634 -633 -622 -615 -600 -595 -581 -559 -560 -529 -547 -515 -549 -517 -551 -524 -558 -542 -563 -559 -560 -560 -552 -558 -551 -541 -550 -534 -547 -527 -539 -527 -540 -522 -539 -528 -541 -525 -547 -522 -535 -531 -524 -525 -510 -493 -498 -465 -493 -460 -500 -487 -512 -522 -515 -533 -494 -493 -494 -383 -482 -369 -362 -427 -505 -550 -540 -576 -573 -535 -565 -536 -554 -513 -541 -498 -527 -489 -511 -478 -499 -465 -487 -454 -481 -463 -483 -475 -499 -496 -497 -502 -516 -501 -526 -484 -507 -489 -513 -490 -505 -486 -498 -497 -497 -505 -488 -491 -487 -481 -483 -471 -483 -469 -481 -446 -456 -444 -448 -429 -455 -410 -462 -440 -468 -503 -483 -527 -483 -497 -456 -389 -444 -346 -229 -338 -521 -587 -590 -567 -629 -533 -595 -563 -574 -577 -569 -563 -555 -560 -542 -529 -524 -509 -521 -467 -516 -483 -508 -488 -514 -514 -519 -525 -517 -509 -526 -522 -510 -514 -512 -499 -500 -492 -502 -468 -493 -500 -493 -499 -497 -503 -488 -490 -487 -496 -479 -483 -471 -468 -460 -447 -452 -428 -470 -460 -515 -495 -521 -535 -514 -494 -485 -454 -476 -374 -363 -310 -554 -611 -621 -584 -693 -499 -679 -543 -657 -526 -629 -569 -604 -585 -591 -569 -569 -478 -567 -453 -554 -513 -564 -517 -561 -548 -576 -517 -595 -529 -590 -482 -585 -523 -582 -510 -581 -560 -571 -561 -577 -458 -577 -546 -572 -534 -566 -499 -575 -467 -560 -542 -545 -542 -533 -439 -517 -454 -517 -443 -518 -500 -517 -505 -526 -503 -504 -500 -471 -431 -474 -313 -482 -433 -506 -640 -579 -486 -591 -551 -562 -506 -567 -477 -560 -543 -551 -406 -567 -443 -541 -430 -522 -469 -503 -465 -514 -468 -525 -504 -535 -391 -538 -489 -547 -477 -537 -413 -519 -422 -514 -411 -503 -435 -503 -465 -502 -411 -501 -501 -487 
#avR[uV]
94 -1661 110 -1642 128 -1623 152 -1604 171 -1587 190 183 174 180 182 177 183 182 175 189 188 187 195 188 187 201 186 201 192 202 201 196 205 175 195 181 196 171 196 173 192 212 198 194 206 170 227 172 224 169 209 239 196 238 186 152 180 140 164 132 148 170 166 166 171 160 186 157 197 180 192 213 201 228 207 220 205 194 192 177 187 170 173 172 166 178 167 169 181 173 182 165 182 165 182 182 185 187 183 177 174 163 173 160 174 164 162 153 167 145 166 161 176 173 172 183 190 193 200 174 209 207 199 225 183 218 191 151 179 146 166 156 154 158 169 174 174 186 187 185 187 193 197 201 191 204 185 191 179 163 164 143 154 122 155 144 150 136 143 132 148 135 143 140 150 144 162 154 177 163 161 140 173 158 169 162 169 158 168 152 163 167 183 165 172 175 189 189 205 193 206 204 192 186 191 187 172 150 163 137 134 160 134 147 140 148 143 151 168 142 149 148 161 158 157 157 140 157 137 124 135 114 124 109 125 118 136 119 157 134 119 167 136 173 143 162 145 160 156 151 151 163 148 158 144 169 146 184 147 213 172 173 181 177 201 174 185 166 178 194 173 176 167 142 155 162 141 133 140 124 152 126 161 153 169 145 170 168 183 190 183 171 181 169 169 129 177 118 160 116 142 161 141 154 138 154 141 159 154 161 153 152 153 152 154 153 140 147 125 145 135 127 137 141 143 151 151 168 159 144 161 151 183 156 189 243 230 260 188 168 170 145 155 160 159 162 170 157 178 179 188 182 207 213 201 221 213 233 220 205 201 183 190 170 182 168 165 150 170 151 174 165 166 154 170 163 170 154 188 154 171 154 171 164 178 155 175 149 175 131 184 163 182 186 183 198 203 191 235 238 215 247 198 200 198 168 173 153 148 130 137 127 133 179 157 167 153 162 157 147 160 167 166 187 158 169 149 156 146 138 144 124 135 92 121 115 113 122 120 122 129 130 144 123 153 138 146 147 158 143 152 157 161 162 158 153 167 164 179 166 172 156 190 175 189 165 208 189 210 232 216 268 195 200 176 151 170 144 159 160 146 163 150 175 167 169 178 188 188 194 186 199 189 191 169 186 152 159 150 124 169 152 170 183 173 175 175 161 178 172 180 177 179 181 179 201 182 192 181 167 176 145 182 157 181 172 188 180 188 177 211 180 212 199 218 222 263 234 220 195 174 151 166 159 164 157 166 168 182 173 185 193 190 194 216 212 233 220 236 215 204 192 197 187 177 175 180 162 176 178 182 167 172 173 175 175 176 173 183 187 163 180 159 162 168 154 171 164 172 173 179 187 174 201 184 208 192 229 196 239 221 197 191 160 166 131 146 121 145 132 144 159 145 158 159 162 167 176 175 182 173 178 172 193 180 156 158 149 143 143 131 127 125 125 145 130 136 130 150 121 138 148 143 150 152 141 144 156 137 129 145 123 152 135 161 153 177 159 185 181 186 194 206 220 207 230 199 207 182 173 158 132 143 123 119 128 131 113 137 141 122 136 127 136 137 147 137 183 137 168 141 147 131 133 101 117 100 135 99 92 130 109 123 109 135 107 143 120 135 154 144 153 147 140 165 136 168 140 173 123 150 123 160 161 151 162 159 146 178 133 177 141 192 171 198 191 206 179 212 149 148 123 130 127 126 133 136 138 149 147 154 155 160 169 163 176 166 201 167 189 185 165 170 160 158 138 159 137 151 152 154 152 154 160 168 149 177 157 173 174 170 158 176 161 168 158 167 165 158 158 157 142 148 149 158 158 163 152 171 159 174 171 184 217 200 235 195 171 180 133 144 106 143 108 120 119 144 134 163 134 151 135 156 138 160 151 165 177 171 179 167 157 155 133 159 133 146 113 154 124 121 112 117 124 121 117 127 120 126 127 126 134 129 145 137 134 133 135 130 130 121 127 138 137 146 158 155 160 170 161 179 181 191 204 204 238 231 201 192 179 176 156 161 159 165 172 167 176 175 165 177 164 182 177 182 189 195 192 190 179 174 156 163 145 158 147 142 141 146 134 141 138 148 136 154 153 170 139 181 163 180 153 181 165 171 164 161 150 176 171 177 164 180 175 181 172 207 167 168 192 180 180 194 231 190 238 272 191 171 179 145 125 147 115 143 139 150 159 138 145 148 150 160 162 178 175 181 209 182 204 180 180 176 164 166 154 156 160 163 154 163 160 169 160 168 168 165 167 164 172 166 174 173 162 166 168 162 162 165 152 168 153 168 165 165 155 164 181 170 186 191 209 196 223 206 159 169 148 142 99 134 110 122 110 124 119 129 145 141 142 145 153 163 168 156 176 165 175 140 175 146 157 143 132 135 115 124 114 127 116 112 132 119 128 113 125 114 134 132 124 126 131 124 131 130 130 123 108 119 109 129 124 139 149 142 153 155 144 168 157 179 226 190 235 196 176 183 153 147 111 136 110 124 129 113 132 127 118 128 131 140 151 143 146 152 153 153 163 134 133 126 125 114 100 115 92 106 104 107 100 113 99 121 112 115 126 130 142 130 141 143 136 153 149 152 137 157 150 163 169 162 171 170 173 166 179 166 182 191 178 204 202 204 215 196 192 179 187 155 104 159 93 120 118 126 122 133 132 146 144 159 147 159 152 173 167 172 165 165 170 160 160 158 152 151 143 146 145 156 152 148 151 158 146 160 161 164 157 156 156 164 168 160 166 149 154 154 156 141 153 146 154 147 154 139 168 150 185 167 194 183 208 189 222 184 176 181 163 153 109 149 113 135 136 134 144 137 150 148 138 167 155 168 165 167 163 168 171 171 164 161 155 151 139 151 135 156 114 151 120 167 139 158 159 160 161 168 182 179 183 195 176 189 172 195 189 214 180 196 206 196 213 220 216 228 222 237 237 244 279 232 296 362 272 209 248 193 208 199 183 190 194 193 192 208 194 216 205 221 222 222 237 224 224 230 208 206 190 195 186 185 173 179 177 179 187 178 195 181 188 178 181 180 178 178 190 189 196 193 187 197 195 195 187 202 195 207 205 207 204 218 222 233 220 231 272 211 274 401 246 205 241 197 187 181 168 172 174 179 172 182 177 189 185 202 192 220 203 201 228 200 210 192 186 183 169 172 154 162 158 152 161 149 158 155 154 152 157 143 171 151 180 149 161 150 163 138 144 144 145 135 149 139 156 129 164 122 176 148 148 158 186 170 195 146 149 159 144 126 94 119 94 101 110 108 108 118 115 115 132 132 131 139 155 153 166 161 174 145 161 145 151 137 134 132 118 115 117 101 105 91 108 92 107 90 102 82 85 86 88 80 90 76 75 64 75 47 78 71 53 72 61 72 71 67 63 82 59 91 97 80 132 83 103 103 90 106 28 101 35 81 70 74 76 86 89 90 101 113 109 119 123 121 129 121 132 107 106 93 87 92 63 68 64 63 58 52 56 61 59 61 53 68 59 78 69 83 69 75 76 67 76 65 61 68 86 73 82 82 101 93 90 108 95 123 99 135 150 134 177 228 169 127 126 125 113 117 108 123 113 123 125 126 134 148 135 150 132 161 156 160 158 150 152 136 130 125 118 120 115 113 104 117 111 122 119 132 106 136 117 139 131 147 141 144 158 149 142 150 148 144 139 151 151 163 146 169 144 180 161 168 168 178 215 185 220 188 178 157 123 127 92 107 83 102 98 98 86 93 109 103 105 113 110 131 133 121 134 130 137 114 124 112 102 108 103 110 94 111 100 109 105 109 101 111 110 112 118 123 117 125 132 142 128 140 132 130 112 143 110 124 122 126 126 130 134 133 130 156 128 160 145 172 184 160 186 356 171 130 144 126 141 121 116 140 117 152 126 167 141 179 165 197 186 214 190 205 195 202 185 181 162 169 141 163 144 159 150 153 142 163 144 170 140 176 153 194 171 187 186 200 204 203 201 201 211 208 216 211 212 219 207 226 216 229 209 229 226 244 250 242 238 242 238 255 288 249 291 252 240 224 161 197 152 168 136 168 136 189 162 173 164 173 169 188 184 191 189 201 198 200 193 191 173 189 157 182 157 166 162 167 159 170 160 176 172 175 181 175 190 190 190 189 181 197 184 211 201 208 205 196 210 202 195 198 184 193 189 201 199 200 200 208 203 217 202 235 205 241 239 238 244 288 236 214 203 199 194 187 193 189 175 195 164 199 171 217 191 220 233 224 227 227 235 234 229 229 218 212 202 209 188 207 183 197 187 212 202 205 192 209 209 217 218 210 201 219 213 215 211 219 212 213 210 209 204 204 185 206 185 199 205 206 219 214 215 231 222 233 224 232 257 223 253 355 277 191 181 189 176 172 196 190 195 191 189 195 183 205 208 210 216 225 230 221 228 234 220 214 208 203 196 193 168 194 197 188 174 195 189 183 188 188 189 186 202 190 189 192 200 195 213 199 206 200 196 193 200 193 188 198 204 206 218 220 217 244 222 243 221 241 240 243 268 244 306 305 307 194 173 181 179 160 219 169 184 158 229 163 209 168 154 179 172 182 237 180 234 183 205 181 203 164 174 162 172 157 183 162 239 171 207 177 207 177 166 179 193 181 234 184 168 190 204 205 227 213 219 200 158 195 195 195 219 195 202 189 220 196 204 198 205 202 218 223 218 239 203 238 255 236 229 207 156 172 227 163 152 174 189 185 225 198 127 208 244 245 246 246 239 238 216 229 142 218 217 194 201 199 237 201 202 208 127 204 217 194 211 198 217 198 229 192 208 202 240 210 150 200 
#avL[uV]
-75 -1799 7 -1719 86 -1640 157 -1560 238 -1477 316 309 331 322 323 324 325 325 334 317 322 320 317 322 322 315 324 311 322 305 324 287 301 295 305 288 295 269 288 245 285 252 282 301 285 318 274 292 279 271 249 132 274 172 279 326 288 365 330 385 364 304 335 307 317 301 299 292 300 277 277 236 262 231 254 229 259 266 265 293 280 305 297 310 299 288 299 287 284 264 296 266 279 292 282 277 271 277 268 257 272 262 267 269 259 260 256 243 252 225 241 210 238 231 250 259 250 264 235 255 230 176 242 115 276 228 285 388 328 396 361 394 391 358 365 320 340 325 322 326 312 308 301 290 289 253 286 267 294 285 314 288 322 324 321 326 316 318 319 305 301 290 305 278 293 289 300 286 306 286 294 279 288 292 279 292 272 258 274 246 273 227 262 269 270 284 262 288 263 249 234 170 266 190 280 243 319 392 346 417 398 353 403 332 376 322 359 337 343 329 330 315 309 286 294 271 299 256 296 297 304 326 319 330 323 340 323 318 321 312 306 299 296 296 300 314 303 313 299 319 292 313 289 296 282 255 272 257 261 276 280 304 279 305 251 284 264 237 275 183 291 262 329 408 349 380 404 420 429 385 397 336 369 319 357 344 348 314 330 287 327 288 322 296 340 323 354 323 377 317 340 335 343 357 343 350 345 340 333 333 329 347 332 344 320 336 316 335 307 308 302 285 292 274 294 284 290 306 303 338 290 320 253 263 226 104 128 97 235 266 273 325 317 331 333 306 311 290 291 296 284 285 264 257 269 242 260 209 255 226 249 241 260 263 262 291 280 301 272 288 272 258 268 267 266 258 272 257 259 270 259 259 264 266 253 253 244 247 233 221 234 197 244 217 252 249 250 277 230 221 201 171 240 170 247 276 304 375 351 417 391 409 397 344 366 360 351 359 328 343 327 302 307 272 298 287 303 309 303 316 317 332 318 353 326 337 332 349 323 313 324 316 309 323 302 315 311 312 303 303 307 314 295 279 290 268 277 258 276 261 277 308 275 300 276 304 243 235 215 145 180 110 219 267 261 314 294 332 319 303 306 279 275 277 258 273 251 248 230 228 225 216 215 211 231 233 244 255 247 315 265 281 273 261 269 270 265 265 262 250 252 241 249 247 249 254 258 249 244 233 234 208 228 194 223 203 221 238 234 237 223 231 205 178 181 113 112 123 216 222 267 308 311 308 324 277 300 250 263 239 257 237 249 235 231 209 222 199 229 174 222 211 226 237 255 257 257 283 266 257 251 256 253 241 242 233 242 243 234 237 227 236 222 230 211 213 204 195 200 198 205 225 228 246 216 242 189 178 155 99 148 143 216 239 289 360 345 418 380 373 371 339 348 339 327 326 315 320 303 290 297 274 282 254 272 287 287 316 308 322 316 343 327 322 309 310 308 311 292 297 299 279 300 281 286 295 292 277 282 297 272 273 268 236 261 227 265 260 275 299 265 296 246 232 235 160 257 155 284 269 329 389 357 418 414 387 416 392 398 393 335 371 336 363 334 340 319 304 315 296 304 301 307 323 332 352 326 373 318 354 343 339 347 341 337 325 331 325 323 301 319 302 317 334 318 323 310 306 301 275 291 258 289 237 303 257 300 290 290 320 280 289 254 220 236 137 258 166 244 329 273 358 329 379 349 335 323 319 297 305 284 291 271 262 267 248 259 236 249 226 268 254 271 286 290 305 289 315 300 291 297 274 291 275 293 284 290 268 289 257 269 261 269 279 270 277 262 263 259 256 251 243 243 209 243 194 250 234 247 262 241 272 220 185 195 116 207 178 247 255 324 394 351 422 410 398 406 355 381 345 360 353 342 323 321 303 313 274 294 273 292 277 305 320 307 328 331 342 331 323 324 320 320 300 308 317 306 303 297 309 298 311 294 297 291 297 289 286 280 266 283 251 261 233 267 233 265 273 277 302 263 290 234 218 195 125 163 157 245 199 282 301 317 342 332 314 315 289 279 281 265 268 251 251 245 231 236 204 233 191 229 224 235 252 246 253 265 264 262 280 266 266 259 264 257 240 253 259 253 228 254 238 253 247 255 258 255 259 238 227 228 217 222 176 237 184 239 227 284 250 246 257 208 175 192 98 33 137 216 190 273 305 304 340 329 312 313 274 299 283 267 279 256 243 234 232 217 212 221 208 218 236 227 235 247 257 250 266 256 278 265 265 266 252 255 247 262 251 257 244 247 249 241 243 243 250 240 228 235 198 220 188 222 190 232 225 239 235 234 245 202 176 187 98 178 205 269 233 304 393 354 416 393 396 387 379 369 356 341 348 331 329 309 310 305 273 298 280 317 273 316 292 317 331 325 345 338 352 329 336 326 302 317 296 317 297 317 301 298 310 310 298 309 304 295 287 286 293 281 276 271 232 269 235 286 272 287 307 274 316 237 223 221 133 218 233 249 266 323 386 354 436 390 397 398 361 371 355 357 344 331 320 319 301 297 270 280 252 292 281 295 305 311 327 317 340 329 334 339 317 323 314 316 301 315 299 299 300 299 307 294 298 294 276 295 283 283 278 269 244 260 233 245 230 254 247 260 276 243 282 226 221 228 147 249 205 274 233 342 417 346 464 412 415 410 386 397 374 367 347 349 351 344 327 334 302 330 289 323 295 316 317 329 335 339 356 347 362 341 351 346 336 331 331 324 320 316 328 305 331 303 317 306 320 317 325 300 305 300 278 291 259 290 272 294 286 283 314 275 311 247 227 238 148 254 248 270 283 330 437 369 459 409 406 401 368 376 367 371 346 344 330 328 313 324 307 312 293 313 299 323 320 335 345 345 356 346 367 350 328 324 311 307 266 290 251 267 226 245 224 222 218 219 213 203 184 192 159 172 152 173 161 168 196 188 214 183 185 164 97 195 107 -45 149 239 194 253 287 282 301 302 266 284 260 251 261 241 245 228 231 217 196 207 177 191 190 209 198 213 221 228 239 234 248 237 239 239 225 230 223 229 219 229 221 234 228 229 229 224 232 211 212 213 200 205 191 202 204 221 237 227 252 207 235 198 103 221 95 -123 164 257 173 272 281 295 325 318 291 289 263 266 248 242 239 234 225 209 191 188 178 193 189 200 204 219 233 243 271 258 281 283 297 292 289 284 297 284 303 304 294 302 289 307 305 308 313 307 320 301 292 295 264 293 267 304 285 312 325 302 316 283 220 262 148 293 262 281 251 360 410 387 451 427 418 432 387 406 361 383 365 360 361 354 340 332 316 324 306 327 312 335 327 349 362 354 381 380 396 377 401 394 390 395 389 404 407 414 429 415 429 417 421 412 423 407 421 406 415 414 393 419 393 431 430 432 472 407 476 382 389 384 271 393 322 379 338 405 488 427 511 470 459 478 451 462 437 445 432 419 425 412 396 401 366 404 348 402 370 411 399 407 437 421 433 429 434 435 423 427 413 422 414 422 405 407 404 410 400 396 408 393 402 385 387 380 340 369 341 365 348 378 400 369 414 349 392 326 251 336 246 148 247 346 357 342 392 366 377 367 356 363 340 339 327 313 314 297 283 289 254 285 253 282 262 280 277 299 299 309 310 319 312 318 305 318 292 304 286 296 285 295 281 284 288 291 283 284 296 278 280 273 257 267 226 258 228 268 256 274 297 272 296 241 206 232 133 236 238 284 308 356 413 398 438 407 393 395 387 387 361 367 354 346 347 314 306 313 292 304 280 316 294 318 329 325 342 335 342 341 347 337 333 332 334 326 322 323 316 316 311 321 314 312 315 308 310 307 299 284 275 277 248 262 239 262 255 279 297 268 301 266 254 244 150 273 156 -153 158 324 249 322 301 319 320 298 292 279 275 261 275 256 256 230 234 213 209 213 170 223 187 235 208 233 229 247 249 257 252 260 253 248 245 254 241 243 202 229 199 220 209 215 206 214 220 219 220 218 222 216 218 205 217 198 192 201 187 209 202 199 211 211 269 214 257 194 153 206 114 210 203 266 400 327 411 391 439 395 411 395 390 389 392 379 376 356 354 340 324 319 298 310 290 316 301 318 314 327 327 339 338 336 340 328 338 325 319 325 310 322 300 309 300 310 300 306 304 300 293 306 289 303 293 292 296 283 277 276 254 269 245 274 265 280 289 278 299 253 266 250 168 242 155 127 202 272 310 305 335 336 304 329 314 318 302 306 288 286 271 273 242 262 235 252 223 243 232 248 247 268 271 268 282 283 284 295 269 274 265 282 271 274 260 264 264 268 278 256 261 257 255 252 247 255 246 256 232 240 240 233 229 241 204 243 220 243 270 246 284 245 261 226 163 222 133 -5 114 295 350 348 336 386 301 351 324 335 338 329 330 313 315 301 288 280 266 279 236 270 252 274 262 283 287 293 309 291 283 300 304 285 290 293 280 281 274 283 249 275 280 274 274 275 271 266 264 265 274 263 262 257 257 246 233 235 212 242 236 263 260 269 290 265 250 242 206 235 127 120 79 318 371 375 348 439 265 424 315 413 280 390 322 369 361 353 340 335 240 335 223 324 282 333 286 338 324 351 302 367 304 361 241 352 288 348 279 347 336 338 324 342 226 340 325 334 298 322 261 324 241 320 327 311 308 302 219 290 239 293 222 290 273 289 276 293 268 266 266 233 222 237 107 243 210 276 401 348 251 361 337 334 285 333 245 321 343 309 182 302 209 283 203 272 244 263 277 276 242 296 277 301 174 302 265 306 294 300 201 292 211 286 200 278 211 281 244 275 188 270 301 265 
#avF[uV]
-19 3461 -117 3362 -215 3263 -310 3165 -409 3065 -507 -493 -505 -503 -506 -502 -509 -507 -509 -506 -510 -508 -513 -511 -510 -517 -510 -512 -514 -508 -526 -483 -506 -470 -500 -469 -492 -441 -485 -419 -478 -465 -480 -496 -491 -488 -502 -465 -504 -440 -458 -371 -470 -411 -465 -478 -468 -505 -495 -517 -512 -475 -501 -473 -488 -462 -486 -450 -497 -458 -470 -450 -464 -459 -462 -449 -464 -460 -458 -471 -467 -476 -470 -482 -466 -466 -466 -457 -465 -437 -478 -432 -462 -458 -465 -459 -456 -465 -452 -434 -447 -426 -440 -429 -434 -424 -419 -396 -420 -370 -407 -372 -414 -405 -423 -442 -440 -457 -436 -430 -439 -384 -441 -341 -460 -446 -477 -540 -507 -543 -528 -551 -545 -516 -534 -495 -515 -512 -510 -512 -500 -502 -498 -491 -481 -458 -471 -458 -474 -448 -479 -431 -476 -447 -476 -470 -467 -454 -462 -438 -449 -425 -448 -418 -443 -433 -463 -441 -483 -450 -455 -419 -462 -451 -448 -455 -442 -417 -442 -399 -437 -395 -445 -434 -443 -459 -452 -477 -469 -442 -441 -375 -459 -376 -472 -430 -492 -542 -509 -555 -532 -514 -537 -480 -517 -471 -503 -488 -511 -472 -479 -463 -470 -445 -451 -429 -440 -413 -433 -422 -439 -440 -443 -440 -448 -459 -459 -438 -479 -447 -426 -466 -432 -469 -444 -476 -448 -473 -455 -470 -444 -477 -438 -454 -427 -425 -419 -441 -408 -490 -453 -478 -461 -482 -452 -458 -450 -404 -453 -378 -465 -439 -496 -551 -505 -542 -545 -553 -569 -509 -549 -462 -530 -472 -526 -489 -518 -482 -513 -478 -511 -460 -503 -466 -510 -452 -531 -442 -537 -434 -482 -496 -485 -512 -481 -504 -487 -500 -488 -494 -482 -499 -485 -496 -474 -489 -456 -482 -433 -454 -438 -412 -430 -416 -437 -435 -442 -474 -462 -482 -451 -471 -436 -419 -415 -347 -358 -357 -423 -434 -444 -471 -472 -491 -492 -469 -482 -447 -469 -476 -472 -468 -472 -471 -470 -463 -473 -442 -476 -431 -450 -425 -450 -434 -445 -459 -446 -452 -442 -440 -446 -424 -435 -421 -437 -421 -443 -412 -447 -424 -431 -414 -435 -430 -432 -409 -419 -397 -409 -352 -418 -360 -427 -403 -436 -448 -453 -468 -466 -460 -416 -419 -439 -370 -445 -444 -477 -529 -500 -547 -529 -537 -530 -523 -524 -528 -505 -522 -485 -490 -487 -470 -474 -459 -457 -457 -453 -466 -450 -454 -461 -457 -453 -446 -448 -453 -446 -471 -444 -436 -454 -447 -454 -447 -455 -454 -458 -460 -461 -447 -460 -472 -456 -441 -449 -421 -445 -422 -456 -428 -449 -464 -465 -475 -466 -470 -452 -424 -425 -378 -396 -378 -415 -468 -437 -466 -464 -477 -479 -464 -452 -442 -425 -453 -426 -442 -429 -437 -418 -422 -412 -415 -404 -402 -400 -420 -397 -414 -397 -439 -434 -434 -444 -445 -442 -446 -440 -426 -441 -422 -432 -419 -428 -429 -428 -455 -440 -442 -426 -400 -411 -353 -411 -352 -404 -375 -409 -419 -422 -414 -434 -411 -417 -377 -399 -336 -376 -357 -437 -418 -441 -460 -477 -468 -488 -434 -466 -418 -446 -412 -442 -430 -439 -430 -447 -421 -455 -419 -465 -390 -427 -403 -423 -424 -432 -432 -437 -445 -442 -435 -433 -423 -426 -414 -417 -409 -418 -417 -418 -424 -391 -416 -381 -393 -380 -368 -375 -360 -373 -371 -384 -413 -403 -448 -400 -450 -381 -407 -352 -338 -369 -341 -407 -400 -456 -491 -492 -540 -526 -505 -515 -498 -493 -498 -486 -489 -482 -496 -478 -473 -470 -453 -455 -448 -452 -443 -446 -465 -452 -466 -448 -470 -452 -447 -454 -440 -444 -441 -443 -418 -437 -428 -444 -432 -438 -436 -437 -433 -419 -426 -417 -396 -420 -372 -423 -380 -443 -420 -461 -480 -452 -490 -453 -453 -443 -390 -456 -363 -466 -442 -488 -522 -501 -541 -533 -516 -548 -506 -536 -535 -457 -507 -464 -499 -472 -488 -457 -487 -452 -464 -445 -448 -439 -457 -433 -469 -427 -508 -417 -447 -474 -448 -471 -450 -473 -432 -475 -445 -458 -455 -464 -455 -464 -475 -483 -460 -478 -447 -474 -398 -441 -381 -450 -399 -454 -420 -459 -436 -468 -454 -458 -430 -447 -392 -434 -328 -465 -345 -456 -478 -421 -482 -460 -507 -475 -468 -460 -457 -447 -453 -439 -446 -431 -432 -430 -424 -426 -437 -417 -415 -453 -419 -442 -446 -449 -444 -449 -453 -451 -444 -452 -427 -446 -436 -461 -434 -468 -425 -463 -432 -440 -420 -446 -441 -439 -436 -430 -429 -417 -415 -408 -386 -392 -358 -401 -353 -414 -386 -418 -421 -416 -444 -405 -402 -396 -352 -403 -349 -427 -388 -468 -501 -495 -531 -530 -518 -551 -490 -545 -480 -511 -489 -498 -462 -481 -455 -479 -451 -465 -452 -460 -434 -460 -453 -466 -462 -477 -455 -485 -448 -445 -433 -438 -425 -429 -435 -433 -423 -423 -437 -425 -446 -424 -442 -429 -431 -422 -422 -411 -397 -405 -379 -400 -370 -413 -392 -420 -434 -447 -464 -442 -472 -425 -422 -399 -363 -395 -358 -437 -379 -459 -458 -479 -501 -497 -487 -482 -466 -455 -446 -442 -432 -433 -429 -428 -420 -431 -397 -424 -370 -403 -381 -399 -398 -405 -401 -407 -405 -408 -415 -407 -404 -407 -400 -412 -394 -423 -398 -434 -392 -434 -391 -435 -413 -426 -423 -417 -410 -414 -398 -406 -382 -402 -352 -419 -356 -446 -395 -453 -443 -427 -437 -403 -407 -383 -337 -306 -328 -387 -369 -419 -430 -451 -456 -472 -452 -464 -434 -437 -429 -416 -429 -417 -406 -412 -407 -398 -421 -404 -412 -399 -417 -403 -399 -413 -411 -407 -426 -420 -432 -428 -425 -435 -412 -424 -415 -428 -418 -422 -417 -413 -423 -414 -405 -410 -419 -402 -391 -400 -350 -388 -342 -390 -355 -398 -381 -404 -416 -405 -431 -394 -385 -383 -322 -385 -364 -438 -382 -447 -493 -488 -526 -515 -507 -512 -498 -498 -501 -483 -490 -476 -483 -472 -479 -462 -449 -463 -455 -457 -449 -462 -449 -461 -464 -460 -461 -463 -466 -457 -452 -438 -435 -437 -425 -431 -422 -432 -436 -431 -434 -436 -429 -433 -436 -425 -417 -410 -401 -400 -386 -400 -357 -408 -385 -428 -426 -442 -452 -442 -474 -416 -450 -412 -368 -415 -409 -433 -419 -470 -498 -491 -546 -514 -526 -511 -493 -498 -473 -485 -475 -472 -471 -462 -447 -450 -424 -434 -415 -427 -414 -422 -431 -426 -427 -432 -432 -435 -439 -446 -418 -437 -414 -438 -414 -431 -426 -430 -443 -430 -448 -437 -434 -447 -426 -447 -421 -440 -428 -432 -413 -423 -404 -416 -403 -421 -427 -426 -459 -435 -461 -431 -424 -432 -363 -445 -397 -454 -421 -498 -521 -506 -558 -532 -533 -536 -508 -531 -506 -513 -491 -509 -498 -504 -480 -508 -469 -503 -455 -489 -465 -477 -477 -488 -488 -491 -500 -493 -507 -497 -503 -494 -487 -489 -477 -484 -482 -480 -486 -462 -487 -467 -485 -467 -487 -467 -480 -455 -461 -441 -431 -437 -413 -438 -426 -433 -454 -434 -500 -443 -505 -431 -436 -428 -371 -439 -424 -451 -446 -484 -546 -518 -573 -544 -542 -535 -513 -514 -517 -520 -484 -512 -485 -496 -479 -491 -470 -481 -464 -484 -464 -485 -476 -487 -484 -496 -491 -503 -482 -502 -449 -492 -450 -465 -426 -450 -413 -435 -408 -424 -408 -417 -395 -409 -385 -398 -374 -407 -340 -369 -358 -369 -375 -389 -413 -417 -437 -420 -423 -408 -376 -427 -403 -317 -422 -449 -443 -447 -495 -481 -484 -492 -461 -478 -452 -460 -456 -458 -451 -450 -453 -440 -433 -431 -402 -422 -399 -416 -389 -408 -408 -413 -413 -414 -426 -417 -426 -418 -420 -412 -412 -408 -400 -410 -400 -412 -419 -418 -426 -418 -419 -408 -407 -408 -388 -407 -387 -409 -409 -428 -442 -445 -474 -440 -456 -429 -375 -432 -369 -277 -411 -462 -415 -470 -468 -476 -493 -491 -465 -468 -436 -448 -425 -432 -425 -436 -417 -430 -394 -389 -407 -393 -399 -392 -391 -403 -403 -416 -425 -420 -440 -435 -458 -442 -448 -440 -452 -437 -460 -448 -465 -454 -469 -456 -466 -458 -476 -446 -465 -445 -437 -431 -413 -433 -424 -433 -449 -434 -502 -450 -464 -442 -406 -432 -344 -440 -411 -440 -396 -486 -504 -507 -545 -528 -529 -540 -495 -524 -476 -499 -497 -492 -493 -494 -496 -486 -482 -485 -480 -472 -474 -480 -479 -486 -497 -487 -499 -495 -514 -479 -507 -485 -498 -487 -497 -494 -509 -496 -514 -501 -518 -497 -512 -488 -499 -471 -497 -454 -493 -485 -446 -492 -455 -503 -501 -500 -535 -489 -536 -473 -487 -465 -404 -476 -425 -483 -428 -511 -516 -529 -546 -551 -530 -553 -527 -548 -526 -535 -533 -532 -534 -531 -519 -522 -496 -525 -481 -510 -476 -504 -487 -499 -500 -490 -497 -492 -493 -487 -479 -489 -473 -484 -468 -491 -464 -485 -474 -494 -469 -472 -484 -461 -478 -450 -449 -449 -426 -442 -423 -448 -449 -472 -491 -478 -510 -473 -491 -461 -402 -470 -423 -376 -416 -473 -484 -468 -506 -483 -486 -490 -469 -486 -466 -465 -461 -461 -449 -448 -416 -450 -410 -445 -411 -432 -415 -417 -407 -425 -417 -430 -425 -432 -417 -436 -417 -440 -411 -436 -393 -433 -402 -435 -413 -431 -429 -436 -441 -433 -438 -429 -428 -418 -397 -418 -378 -421 -374 -437 -400 -455 -458 -440 -464 -420 -421 -417 -353 -424 -417 -442 -431 -483 -506 -505 -521 -510 -492 -494 -473 -481 -471 -470 -460 -459 -457 -446 -440 -434 -427 -434 -417 -431 -418 -431 -431 -433 -446 -446 -437 -453 -448 -447 -438 -442 -435 -438 -433 -436 -435 -440 -429 -446 -447 -455 -443 -449 -443 -437 -412 -428 -386 -401 -370 -388 -365 -393 -390 -412 -427 -424 -429 -426 -399 -417 -334 -434 -343 -202 -329 -455 -394 -449 -443 -441 -436 -439 -409 -432 -402 -429 -417 -435 -421 -428 -421 -427 -400 -418 -365 -426 -373 -416 -370 -402 -370 -410 -394 -417 -403 -414 -395 -411 -389 -424 -381 -420 -356 -423 -371 -407 -395 -415 -410 -418 -422 -421 -431 -426 -439 -427 -431 -425 -425 -425 -409 -431 -396 -439 -428 -444 -462 -454 -508 -456 -496 -450 -442 -456 -406 -462 -443 -490 -562 -525 -563 -559 -575 -564 -547 -585 -552 -562 -557 -553 -546 -544 -538 -531 -514 -521 -496 -510 -483 -507 -475 -507 -472 -510 -485 -505 -501 -504 -499 -499 -499 -501 -492 -500 -491 -498 -491 -499 -490 -499 -482 -503 -488 -512 -494 -515 -495 -500 -504 -494 -491 -482 -462 -470 -444 -471 -445 -475 -465 -488 -493 -495 -501 -488 -472 -491 -407 -481 -399 -416 -438 -486 -514 -505 -529 -523 -498 -518 -490 -513 -467 -505 -459 -504 -462 -493 -475 -486 -462 -479 -458 -478 -462 -477 -465 -481 -473 -477 -471 -491 -467 -493 -456 -486 -468 -487 -464 -483 -469 -482 -482 -478 -479 -476 -475 -473 -466 -472 -460 -469 -457 -466 -437 -444 -426 -440 -415 -441 -410 -450 -440 -458 -485 -478 -506 -479 -485 -459 -420 -445 -387 -349 -392 -486 -531 -537 -513 -558 -498 -542 -520 -526 -527 -524 -514 -519 -524 -511 -505 -505 -497 -501 -464 -504 -473 -488 -470 -487 -484 -486 -477 -485 -480 -489 -478 -480 -480 -476 -469 -469 -463 -470 -452 -465 -470 -466 -474 -470 -484 -466 -471 -466 -470 -456 -463 -450 -446 -444 -438 -442 -430 -463 -454 -508 -482 -512 -512 -506 -491 -486 -475 -479 -434 -425 -386 -513 -545 -556 -528 -600 -484 -594 -499 -572 -510 -554 -532 -537 -516 -533 -513 -518 -477 -515 -457 -508 -488 -514 -490 -503 -498 -514 -474 -525 -488 -524 -481 -524 -496 -525 -486 -525 -503 -518 -518 -523 -461 -525 -494 -524 -503 -527 -488 -538 -460 -520 -486 -506 -504 -498 -439 -485 -442 -483 -442 -486 -477 -487 -482 -495 -486 -489 -484 -473 -425 -475 -363 -480 -439 -483 -558 -521 -479 -525 -489 -509 -474 -518 -470 -519 -470 -518 -427 -547 -455 -529 -442 -510 -460 -492 -420 -494 -459 -491 -479 -501 -412 -504 -467 -515 -422 -505 -418 -487 -422 -485 -417 -477 -440 -473 -453 -478 -428 -481 -451 -465 
