ADC Sampling rate (Hz):
100
Fragment duration (sec):
20
Number of samples exported by each lead:
1999

#I[uV]
13614 12303 10935 9304 7656 6034 5211 4418 2839 1329 -15 -41 -90 -61 -30 -89 -145 -118 -173 -175 -247 -256 -232 -289 -191 -205 -160 -92 -107 -117 -44 -81 -119 -69 -108 -58 -8 -67 -74 0 -20 -61 -55 -77 -6 -56 -23 28 -22 50 -20 43 71 -171 -384 -396 53 278 173 96 58 20 39 97 22 39 69 33 -3 -48 -51 -39 -34 -68 38 32 65 114 96 128 170 93 135 162 126 98 172 178 157 223 169 158 124 91 205 152 164 211 152 241 203 322 254 -7 -155 -167 255 424 332 308 216 224 237 234 221 170 236 237 196 169 104 85 51 119 218 190 269 254 245 252 216 284 263 256 275 281 256 248 310 307 303 279 246 244 228 216 247 316 258 312 252 335 398 239 -56 -292 249 554 515 473 298 370 344 278 362 350 313 346 231 236 216 127 184 169 232 201 287 301 260 306 304 360 273 263 376 316 248 264 293 301 313 358 319 322 320 277 323 277 255 276 271 293 301 326 316 325 429 410 85 -387 48 535 461 538 485 350 488 346 344 370 371 316 318 323 221 209 216 223 227 177 280 287 356 313 337 378 371 345 285 299 426 352 385 377 394 321 345 431 357 343 415 325 328 242 307 358 356 303 356 293 334 379 346 459 227 -251 -181 374 612 654 491 427 501 428 379 374 434 423 398 365 333 234 261 216 272 252 306 284 389 348 384 356 453 375 306 454 310 345 453 410 386 398 352 439 446 460 461 410 453 366 420 395 387 391 420 422 450 463 398 523 507 240 -57 -110 453 701 456 469 550 450 474 436 430 403 410 402 342 352 259 246 250 280 312 355 370 396 436 382 483 399 431 472 435 387 482 472 447 402 405 517 452 433 532 460 349 332 458 438 434 470 489 434 492 522 503 498 266 -43 225 648 485 615 557 471 531 467 558 441 445 427 393 451 337 331 326 313 370 363 347 418 462 436 483 483 461 449 482 437 467 437 444 462 461 466 462 473 435 374 395 376 448 469 427 451 434 437 393 437 383 62 66 434 459 555 474 382 495 414 421 414 328 390 314 332 328 282 235 202 245 279 334 339 315 359 351 324 312 375 364 370 366 339 285 338 335 354 320 342 380 317 268 292 341 261 292 296 282 288 279 350 254 243 126 -55 343 475 346 476 498 443 441 427 370 402 379 336 360 316 238 265 234 236 316 249 257 298 293 350 349 339 353 338 338 332 280 372 318 359 324 348 353 404 331 319 390 300 317 329 273 274 304 301 315 322 240 375 230 -31 48 282 361 456 389 383 410 341 345 350 339 308 283 277 194 145 170 160 180 181 216 256 259 231 242 300 295 366 273 266 307 265 269 327 283 269 273 283 297 208 287 208 320 218 183 269 232 222 314 246 221 265 173 10 -292 29 310 323 236 230 361 257 246 251 223 231 120 106 135 111 29 78 25 65 101 127 144 187 160 209 190 194 206 212 163 132 181 134 191 258 196 157 198 202 182 178 111 178 136 195 124 113 199 189 196 78 142 77 -113 18 35 147 161 241 216 144 237 171 238 151 197 180 99 143 79 60 13 57 46 104 102 166 181 128 141 118 157 164 145 199 176 136 176 208 178 216 167 165 209 156 122 164 153 153 132 178 156 176 156 109 156 101 130 -18 -185 36 76 186 176 141 238 187 183 158 170 147 107 100 102 86 -21 62 61 66 72 85 153 127 87 149 175 148 191 136 172 141 160 158 128 161 126 149 169 134 125 130 163 125 147 137 180 138 167 109 172 34 -242 91 189 114 136 157 195 160 200 140 130 107 140 87 22 70 -14 29 -7 18 47 43 97 89 146 122 124 138 144 138 107 121 126 136 161 135 118 142 160 121 120 112 78 109 82 89 128 101 109 99 142 -6 81 -29 -274 76 202 49 91 126 111 133 128 110 149 88 94 57 28 24 -55 -23 -20 18 -12 31 25 85 118 84 111 90 140 113 115 112 106 124 131 126 106 122 151 134 134 116 146 126 124 123 79 105 104 122 146 130 156 105 177 35 164 -30 -163 119 1 102 163 225 238 228 276 209 198 199 192 159 151 115 95 80 42 75 39 94 68 122 179 168 217 184 204 198 164 218 222 215 228 220 201 214 221 220 306 237 202 241 218 252 265 234 247 215 201 203 190 237 252 248 256 247 253 177 383 21 -156 100 -71 219 319 297 363 283 293 261 327 241 244 206 206 141 56 101 44 98 79 126 136 162 174 181 236 219 249 243 235 239 224 250 266 260 235 274 306 272 273 282 309 281 258 263 304 254 215 243 223 240 266 277 271 300 302 253 305 200 334 139 -316 147 401 364 431 327 332 309 339 288 297 261 270 207 207 156 64 127 116 143 95 172 251 215 255 235 313 258 274 269 225 260 263 288 267 332 302 278 333 287 311 288 223 275 270 241 229 288 275 266 261 287 291 252 301 207 294 149 -252 118 298 373 413 322 308 236 240 309 205 220 264 226 149 128 26 129 27 122 146 127 179 186 203 295 223 222 236 231 234 228 173 229 272 223 249 256 266 240 248 196 155 244 178 247 245 187 239 171 278 155 321 140 -67 157 -342 66 522 297 284 171 229 132 196 179 202 97 127 112 64 68 -33 66 -54 57 92 58 114 103 143 80 184 126 147 150 128 80 174 118 117 118 190 115 118 184 121 81 154 167 94 22 107 66 120 69 94 59 127 50 182 49 -41 -227 -574 -102 356 205 207 96 131 64 89 16 72 47 45 25 -27 -138 -89 -83 -159 -110 -38 -41 -58 -4 97 -11 16 65 41 39 15 23 33 48 69 86 29 76 79 44 53 26 89 65 56 -38 -25 47 -74 41 62 20 96 -27 66 -27 147 51 -274 -435 -642 12 357 218 194 -8 88 85 36 62 41 48 23 -66 -84 -156 -148 -143 -141 -91 -99 -47 -45 28 39 4 6 60 17 -5 62 37 65 34 65 56 36 74 78 82 80 85 74 36 42 44 10 28 64 68 73 106 114 44 152 93 130 -17 -424 -470 -26 418 331 270 246 141 152 154 138 113 135 155 134 16 24 -15 -108 -16 1 28 81 108 125 123 102 144 147 139 143 147 138 127 163 152 165 177 177 143 163 189 165 154 93 98 97 67 116 197 169 147 194 130 210 216 24 -233 -405 -2 339 320 261 85 164 169 139 158 115 174 133 62 101 9 -30 -73 -70 47 60 64 42 124 147 129 164 154 86 100 94 87 154 153 114 166 102 115 224 173 126 89 95 109 51 171 206 150 147 151 216 198 174 -16 -389 -292 172 415 345 232 188 172 136 189 219 156 150 107 111 73 -7 35 -36 40 45 48 32 100 156 177 127 142 164 108 118 151 145 137 160 113 176 164 162 152 146 151 100 73 59 76 118 172 85 83 147 104 163 164 262 95 -223 -497 -138 396 332 244 192 118 131 176 188 183 127 94 122 40 -7 -20 -46 -40 -23 37 38 111 91 105 188 139 184 147 103 179 106 110 189 164 146 210 204 115 201 139 186 219 131 180 138 102 75 116 198 142 170 119 185 207 308 182 -219 -560 -435 214 462 348 248 155 141 144 148 150 160 130 138 19 5 -45 -52 -75 -67 32 -31 70 63 38 169 152 132 143 120 109 134 91 180 152 131 220 175 118 141 174 225 188 168 148 195 177 122 121 113 129 178 160 176 172 212 176 243 295 69 -348 -548 -35 487 376 261 163 185 206 178 189 187 101 76 82 56 28 0 -63 -74 -51 96 16 59 122 92 149 137 139 106 80 181 160 148 210 133 154 205 155 206 166 141 221 225 207 149 134 146 81 153 131 207 194 127 179 152 197 309 123 -141 -418 -250 291 370 316 223 103 127 208 194 122 149 94 41 75 7 -24 1 -100 37 -9 10 125 62 103 96 135 123 171 160 169 128 85 141 112 84 155 205 150 108 190 175 140 84 90 113 79 138 181 155 127 96 190 134 192 137 -176 -306 -112 277 309 189 228 119 186 149 167 142 77 159 106 27 36 14 -46 -70 -17 -8 67 106 126 58 156 158 171 161 48 110 168 106 124 121 101 119 100 122 225 169 153 125 46 100 68 42 98 128 107 79 116 74 124 233 113 -84 -505 -322 224 295 217 104 120 119 107 96 80 27 53 8 35 38 -143 -106 -142 -129 -88 17 22 -9 97 25 56 102 93 14 44 81 42 83 73 -6 96 142 127 55 68 96 39 125 149 110 84 57 22 11 12 87 84 83 127 37 121 34 203 114 -233 -331 -470 106 232 143 228 49 174 70 97 74 54 28 -9 -3 -14 -81 -228 -131 -138 -96 -76 -84 45 12 39 -21 40 63 50 51 52 46 41 99 49 76 118 35 74 68 87 110 92 159 91 -6 66 58 85 139 117 59 -31 25 51 61 141 91 86 68 100 169 187 -17 -550 -406 76 279 334 145 172 151 97 103 143 126 67 77 49 -77 -90 -105 -112 -72 -99 8 19 -61 54 3 64 53 102 73 125 36 72 58 108 47 115 102 98 62 139 86 76 136 145 108 144 79 99 64 128 80 77 167 87 34 126 87 95 133 131 70 202 -50 -290 31 10 185 306 130 204 182 148 63 157 72 127 52 42 50 -13 17 -105 12 -50 23 35 35 100 107 129 166 102 115 119 95 137 127 73 114 150 131 100 145 140 78 116 74 152 168 154 145 7 131 116 92 140 55 159 132 143 66 171 -39 -275 125 -108 118 367 104 164 140 
#II[uV]
-87347 -79726 -69995 -62048 -52305 -44410 -35086 -27354 -17806 -9965 -257 -286 -271 -270 -241 -260 -322 -304 -338 -300 -307 -322 -283 -296 -256 -311 -330 -283 -360 -336 -250 -334 -335 -302 -339 -341 -290 -390 -346 -260 -219 -200 -216 -195 -223 -289 -337 -303 -287 -292 -326 -349 -339 -251 54 53 -226 -362 -397 -331 -247 -269 -214 -163 -193 -170 -224 -207 -145 -156 -130 -104 -65 -97 -43 -94 -208 -87 -138 -110 -76 -139 -82 -83 -116 -163 -106 -93 -87 -94 -1 66 18 -12 -36 -99 -145 -122 -136 -209 -184 -146 -161 -55 321 296 -68 -257 -207 -73 -94 -72 0 -1 -9 -84 -61 11 39 -22 38 95 8 -19 104 80 -30 4 29 17 49 11 -25 56 68 16 34 -24 47 41 49 133 118 83 36 -37 -130 -80 -57 -109 -65 -116 -51 -138 119 484 240 -130 -183 -107 -100 -25 -23 -78 29 6 12 37 -25 1 68 -75 -38 73 130 64 62 97 0 -100 28 3 -104 -11 63 -13 -74 -41 -56 -33 -20 -111 -28 -41 -5 0 105 79 -92 -22 -63 -110 -3 -90 -151 -143 -3 -52 -47 263 11 -107 -114 -116 -23 -43 -2 -33 -26 11 15 -60 18 17 0 35 43 88 41 47 52 -61 82 0 -38 42 -67 -21 -32 -16 57 46 22 -21 24 -17 0 52 -120 16 119 27 109 92 -5 99 69 -35 -18 -38 -29 -114 -74 17 -33 170 -40 -31 22 -171 -35 3 -11 9 -64 -8 33 47 62 2 -84 11 -5 22 40 35 43 -10 8 26 11 19 59 -4 -127 61 -105 -41 42 -42 -16 12 -54 -39 -10 26 50 75 102 153 85 157 131 62 41 55 17 89 -68 61 110 165 344 50 -16 73 -32 44 91 115 89 160 99 57 135 167 108 201 148 167 226 181 245 212 161 221 179 140 112 150 159 193 131 96 146 156 138 98 64 176 167 218 238 297 274 225 309 243 126 145 138 67 170 165 77 169 354 404 184 143 27 118 169 180 197 195 274 177 162 174 170 237 210 256 310 295 324 315 219 237 179 181 186 265 196 217 214 202 194 199 159 208 178 261 210 288 367 274 314 250 178 209 97 152 94 132 38 91 222 419 379 93 36 82 36 94 105 127 102 78 58 103 81 81 142 92 83 50 119 137 138 126 56 102 57 48 14 80 75 88 54 46 -50 -20 -12 37 14 100 113 107 98 161 173 105 47 58 -25 18 -36 50 -34 -19 88 325 179 28 -120 -24 -48 5 -42 -19 -75 -13 -33 -67 -9 -40 -94 -20 -34 5 56 -17 -68 -29 -77 -21 -37 -62 -25 -62 -61 -67 -122 -32 -70 -96 -84 -67 -42 -14 -26 33 88 53 22 -4 -51 -77 -87 -92 -89 -67 -117 -67 -87 82 -50 -82 -47 -153 -111 -29 -101 -72 -118 -94 -85 -83 -97 -71 -147 -91 -118 8 -89 0 -77 -40 -82 -102 -130 -52 -103 3 -162 -77 -139 -79 -127 -17 -120 -58 -102 -41 -33 -38 3 23 43 -16 -130 -42 -145 -92 -92 -82 -179 -64 -188 -73 23 -100 -107 -175 -204 -127 -78 -102 -161 -84 -122 -51 -179 -114 -112 -140 -103 -43 -59 17 0 55 -50 16 -67 6 -62 27 -54 10 -89 -18 -65 -15 -51 42 -51 -9 -29 31 30 20 3 48 -4 17 -111 -87 -95 -60 -94 -86 -142 -90 -54 -1 -175 -89 -219 -175 -227 -220 -183 -139 -146 -137 -127 -100 -193 -93 -139 -94 -88 -72 -34 -40 -83 -15 -99 -103 -150 -96 -132 -96 -126 -60 -85 -106 -87 -68 -100 -50 -110 -74 -57 -32 -12 2 11 -47 -157 -85 -180 -125 -197 -149 -178 -108 -91 -83 49 -132 -314 -169 -276 -191 -196 -162 -192 -141 -144 -122 -177 -116 -121 -79 -98 -69 -34 -68 -113 -97 -118 -103 -237 -109 -131 -115 -78 -112 -73 -91 -84 -75 -115 -54 -89 -23 60 9 60 -7 -11 -59 -168 -104 -140 -104 -129 -89 -83 -53 283 -55 -231 -158 -275 -175 -185 -175 -146 -172 -165 -163 -100 -137 -173 -86 -124 -81 -21 -81 -75 -97 -104 -109 -158 -117 -139 -95 -90 -94 -126 -116 -122 -96 -72 -100 -144 -70 -52 -46 25 -17 15 -32 -80 -98 -171 -146 -188 -162 -167 -185 -242 -158 54 -146 -195 -224 -345 -252 -308 -265 -268 -251 -210 -228 -208 -192 -225 -171 -178 -170 -111 -125 -138 -114 -171 -115 -145 -145 -132 -146 -126 -121 -119 -119 -123 -120 -127 -119 -151 -127 -121 -120 -140 -106 -66 -57 -13 -17 17 -40 -33 -83 -164 -147 -174 -209 -185 -231 -233 -190 -126 -156 -177 -178 -313 -241 -234 -246 -169 -236 -221 -184 -193 -166 -176 -143 -100 -104 -94 -79 -70 -62 -71 -37 9 -24 -8 -21 -38 -18 -86 -16 -27 -40 -2 -52 -66 -60 -47 -66 5 -48 -110 -32 -115 -31 2 -16 6 0 43 -10 -56 -37 -121 -99 -120 -119 -117 -110 -80 -147 -16 -98 -212 -100 -218 -127 -87 -120 -77 -62 8 -19 -27 13 25 36 33 62 112 99 145 119 134 114 87 98 137 112 129 116 117 98 108 92 106 82 28 60 85 50 11 65 36 56 -17 74 102 100 186 110 158 89 2 45 -39 20 -16 7 -85 33 -5 54 250 31 25 28 -75 58 67 93 95 115 145 144 130 148 167 188 155 223 275 247 249 237 252 210 191 195 200 177 166 168 140 135 132 134 108 139 89 103 98 106 119 151 79 164 277 149 220 165 126 122 2 71 -23 75 26 90 76 126 354 82 18 78 -69 113 53 124 50 163 59 132 184 192 153 191 138 239 243 237 283 192 191 167 107 213 84 121 104 184 132 170 96 129 93 82 73 140 129 192 129 227 202 175 135 154 -22 14 -10 38 69 49 1 71 113 297 65 -37 -46 -55 -41 -40 30 -28 -69 57 14 113 -4 101 77 111 66 100 51 130 72 85 -9 23 -94 20 0 1 -22 -8 -67 -31 -28 -45 -125 -34 -55 -27 -168 -8 -121 -36 -37 81 32 51 57 -25 -58 -90 -153 -38 -153 -110 -120 -71 -184 5 101 -119 -188 -185 -161 -99 -170 -114 -129 -107 -89 -72 -121 -75 -121 -109 -82 -49 -123 -69 -55 -71 -142 -110 -97 -133 -181 -111 -130 -154 -163 -166 -179 -172 -153 -147 -228 -164 -157 -193 -184 -166 -106 -108 -106 -51 -59 -7 -128 -99 -172 -264 -171 -214 -209 -198 -161 -174 -180 -16 -335 -280 -200 -263 -204 -283 -246 -180 -242 -206 -198 -179 -206 -210 -202 -210 -177 -175 -158 -126 -138 -147 -187 -123 -178 -190 -166 -110 -148 -132 -75 -71 -81 -98 -104 -133 -119 -39 -51 -54 -68 -18 -38 -18 28 64 11 10 32 -88 -105 -66 -115 -88 -125 -117 -88 -127 27 -191 -222 -122 -281 -156 -158 -129 -192 -178 -129 -144 -130 -71 -117 -146 -80 -35 -71 -16 20 -9 -10 -57 -39 -65 -135 -27 -33 -10 -17 -30 0 -34 -102 -44 -63 -26 -78 -72 -31 53 30 76 106 80 116 -54 -86 -57 -110 -71 -133 -119 -157 -143 -159 29 91 -143 -197 -345 -236 -183 -161 -132 -153 -96 -213 -75 -109 -99 -43 -42 -11 -27 -4 60 85 19 -31 -13 -13 -51 20 6 -88 7 -18 -19 6 -42 -76 14 -116 -8 141 67 100 73 124 30 -66 -60 -92 -106 -159 -130 -166 -197 -115 -82 174 -20 -275 -293 -340 -203 -201 -222 -168 -111 -75 -143 -143 -142 -135 -92 -117 -29 -12 14 33 -35 -59 -54 -41 -48 -93 -62 -29 -88 -71 -51 -27 -42 -118 -73 -73 -72 -75 -50 -51 -27 4 -6 -3 -15 -32 -100 -267 -248 -157 -225 -227 -218 -180 -247 26 13 -242 -233 -359 -259 -202 -267 -241 -179 -141 -156 -190 -189 -129 -131 -113 -71 -97 -52 -39 -10 -10 -51 -51 -92 -128 -90 -1 -49 -54 -31 -88 -84 -100 -69 -74 -30 -86 -90 -90 -113 -63 -116 -50 53 -87 -88 -92 -148 -155 -183 -166 -202 -173 -204 -119 -252 -155 87 -307 -260 -227 -215 -163 -210 -166 -156 -123 -82 -107 -49 -76 -200 -83 -23 -126 -81 -2 43 -41 8 -26 -111 2 17 -36 3 -18 -29 -33 -62 -6 -58 -72 -16 -77 -109 -120 -53 -61 -174 -174 -32 -44 28 51 52 8 -25 -70 -173 -128 -129 -124 -115 -130 -4 -123 57 -29 -221 -73 -98 -120 -138 -11 30 -17 6 1 -9 -38 23 12 102 77 42 68 62 90 46 68 81 60 -5 -32 15 -7 -41 39 -12 -8 13 -55 -77 12 -68 -101 -5 -78 -94 -39 -49 -23 77 82 31 34 -71 -30 -69 -75 -99 -94 -139 37 27 56 338 -41 -60 -152 -147 14 -96 22 60 78 50 53 53 19 21 78 119 165 123 162 127 113 133 58 41 49 0 -7 -34 72 95 40 -2 18 -10 -3 8 45 -48 -84 33 78 98 117 68 131 24 -2 31 12 -78 -67 -36 -85 -70 18 163 370 -13 -152 -178 -131 -65 -8 1 19 62 30 5 133 55 -12 35 107 111 94 131 129 97 70 51 -15 -15 41 -15 44 -52 -12 26 -3 -18 7 -70 -66 -76 -56 18 62 33 115 106 121 105 48 0 -14 -66 -50 -105 -83 -99 -47 -107 121 312 -79 -163 -223 -212 -68 -90 2 -69 -49 -45 -100 -52 -71 16 81 -38 26 58 24 29 130 28 13 9 -58 -106 -13 -25 -51 -33 -26 -86 -45 -78 -112 -55 2 -27 -51 -49 -36 -95 -19 4 24 52 117 98 40 -20 -9 -96 -74 -92 -152 -82 -137 -77 -79 -74 139 -199 -168 -221 -244 -164 -181 -126 -141 -169 -147 -148 -143 -148 -100 -90 -116 -184 -64 -86 -64 -81 -86 -78 -93 -122 -146 -96 -45 -75 -41 -8 -34 -44 11 -43 22 26 -22 -2 -3 -12 18 16 98 0 -69 -19 45 54 152 195 133 42 63 19 -10 -27 -48 -122 -74 -172 -70 -44 15 70 -164 -128 -74 -133 -73 -152 -28 -108 -56 -41 9 -44 32 13 -1 -8 72 63 86 98 178 150 84 82 99 33 126 104 141 132 78 77 61 87 95 74 151 47 43 79 68 -12 39 40 54 14 40 56 58 165 126 128 195 40 -5 -35 -46 -73 20 -56 -44 -34 -69 196 161 1 1 -153 -39 -46 52 59 0 58 86 72 61 38 139 154 197 174 224 216 219 234 181 162 183 124 195 87 113 112 115 99 105 26 98 96 84 31 93 41 40 0 37 90 142 187 161 104 127 68 37 -16 -33 -54 -33 16 -30 16 -16 196 202 5 -22 -87 -77 -16 3 
#III[uV]
-100961 -92029 -80930 -71353 -59962 -50444 -40298 -31773 -20645 -11295 -242 -244 -180 -209 -211 -171 -176 -186 -165 -125 -60 -65 -50 -7 -65 -106 -170 -190 -252 -219 -206 -252 -216 -233 -231 -282 -281 -322 -272 -260 -199 -138 -161 -117 -217 -232 -313 -332 -264 -343 -305 -392 -410 -80 438 449 -280 -640 -570 -427 -305 -290 -253 -260 -215 -209 -294 -241 -142 -108 -79 -65 -31 -29 -81 -127 -273 -202 -234 -238 -246 -233 -218 -245 -243 -262 -278 -272 -244 -317 -171 -92 -106 -103 -241 -251 -310 -333 -289 -450 -387 -468 -416 -48 477 464 -323 -682 -539 -382 -310 -296 -236 -235 -230 -254 -297 -225 -157 -192 -66 10 -42 -138 -114 -109 -300 -250 -215 -234 -167 -272 -289 -199 -207 -265 -221 -272 -263 -266 -253 -145 -128 -160 -191 -253 -378 -396 -316 -422 -317 -451 -449 -377 175 776 -9 -684 -698 -581 -398 -396 -368 -356 -333 -343 -301 -309 -257 -235 -147 -203 -223 -95 -102 -136 -224 -203 -261 -406 -275 -356 -377 -275 -312 -329 -322 -306 -349 -334 -333 -469 -347 -363 -326 -277 -218 -197 -348 -298 -335 -403 -304 -416 -467 -469 -432 -463 -133 650 -37 -642 -575 -654 -508 -394 -490 -380 -371 -358 -355 -376 -300 -306 -222 -173 -173 -135 -185 -130 -228 -348 -274 -314 -376 -336 -439 -367 -317 -316 -368 -306 -363 -398 -369 -339 -344 -378 -478 -326 -296 -298 -219 -150 -312 -258 -286 -339 -374 -331 -364 -493 -421 -441 -260 421 141 -406 -590 -825 -527 -423 -512 -419 -444 -383 -400 -376 -335 -363 -417 -222 -267 -193 -231 -216 -262 -294 -380 -321 -372 -337 -394 -379 -434 -393 -416 -386 -410 -453 -403 -386 -407 -478 -456 -433 -411 -335 -351 -213 -335 -238 -256 -328 -378 -366 -433 -374 -466 -461 -397 -74 402 160 -469 -628 -489 -424 -459 -334 -384 -276 -331 -345 -275 -234 -233 -151 -110 -78 -24 -99 -67 -143 -209 -175 -256 -242 -370 -248 -271 -278 -304 -290 -336 -315 -309 -303 -341 -341 -284 -214 -293 -162 -75 -106 -149 -194 -307 -325 -351 -366 -322 -356 -425 -328 87 448 -40 -505 -458 -496 -388 -290 -333 -272 -284 -263 -282 -252 -223 -214 -126 -74 -16 -17 -45 -48 -127 -180 -283 -255 -296 -218 -264 -231 -268 -234 -273 -238 -284 -253 -283 -204 -251 -185 -67 -99 -81 -126 -270 -259 -330 -298 -340 -304 -354 -345 -160 357 312 -340 -423 -472 -437 -287 -390 -287 -319 -335 -270 -286 -233 -250 -186 -189 -152 -152 -126 -141 -196 -213 -258 -256 -294 -276 -297 -295 -289 -281 -312 -292 -336 -358 -348 -316 -305 -241 -267 -209 -169 -130 -168 -156 -244 -238 -307 -270 -316 -299 -289 -262 -37 380 -164 -447 -467 -500 -546 -438 -483 -446 -445 -416 -413 -403 -370 -356 -332 -285 -268 -231 -259 -266 -325 -328 -370 -371 -387 -401 -378 -400 -399 -399 -403 -404 -389 -455 -409 -415 -396 -418 -358 -285 -302 -247 -295 -333 -325 -352 -392 -393 -404 -389 -357 -442 -318 114 -99 -364 -408 -610 -500 -413 -512 -414 -463 -444 -424 -392 -380 -349 -342 -236 -288 -152 -269 -181 -293 -296 -342 -333 -372 -352 -398 -362 -435 -344 -447 -345 -397 -345 -404 -327 -375 -325 -331 -246 -283 -185 -276 -234 -314 -312 -378 -315 -407 -328 -400 -330 -361 -83 315 -129 -418 -499 -440 -358 -440 -359 -407 -335 -345 -283 -300 -220 -248 -251 -132 -122 -85 -47 -101 -72 -194 -170 -228 -202 -253 -167 -260 -202 -252 -151 -246 -150 -242 -216 -247 -166 -227 -170 -151 -157 -108 -129 -140 -178 -235 -201 -295 -250 -290 -165 -284 -167 58 -19 -210 -237 -380 -416 -443 -364 -421 -310 -385 -289 -325 -280 -293 -236 -219 -154 -102 -130 -81 -144 -186 -182 -280 -232 -292 -215 -289 -260 -272 -260 -261 -242 -263 -277 -278 -267 -277 -239 -266 -188 -134 -161 -141 -200 -290 -263 -336 -301 -353 -259 -335 -209 -222 -65 235 -169 -390 -355 -453 -333 -435 -350 -376 -299 -315 -269 -284 -217 -224 -166 -76 -131 -96 -135 -185 -182 -272 -231 -324 -259 -307 -264 -270 -248 -245 -233 -244 -233 -243 -215 -216 -173 -108 -125 -64 -138 -175 -185 -316 -241 -320 -242 -296 -198 -255 -87 525 -146 -420 -272 -411 -332 -380 -336 -346 -313 -295 -271 -241 -225 -195 -157 -110 -110 -13 -99 -123 -140 -202 -198 -305 -240 -264 -233 -235 -232 -234 -238 -248 -232 -233 -236 -263 -213 -212 -167 -95 -130 -63 -142 -163 -188 -299 -247 -298 -261 -309 -178 -324 -128 329 -223 -398 -273 -436 -378 -420 -399 -396 -362 -359 -317 -302 -249 -253 -195 -123 -147 -91 -143 -125 -145 -196 -201 -264 -230 -243 -236 -266 -235 -234 -232 -230 -244 -259 -246 -257 -250 -273 -254 -274 -223 -212 -183 -137 -140 -61 -146 -137 -206 -310 -277 -330 -315 -363 -267 -398 -159 36 -276 -178 -280 -477 -467 -472 -474 -445 -445 -420 -383 -386 -326 -327 -258 -196 -185 -136 -154 -109 -157 -140 -160 -170 -193 -226 -205 -242 -217 -251 -235 -250 -256 -230 -272 -268 -274 -268 -286 -301 -286 -312 -273 -334 -284 -263 -251 -240 -214 -157 -214 -247 -275 -373 -348 -376 -366 -370 -288 -464 -168 139 -198 -140 -320 -538 -425 -451 -404 -370 -324 -318 -261 -271 -192 -180 -104 -22 -39 68 1 65 -6 -1 -48 -87 -82 -99 -106 -119 -126 -117 -140 -116 -158 -160 -178 -207 -214 -221 -222 -261 -216 -272 -225 -276 -188 -201 -153 -29 -133 -65 -151 -263 -232 -310 -279 -319 -246 -390 -167 -340 -85 566 -115 -375 -335 -507 -268 -265 -215 -243 -173 -151 -116 -139 -59 -40 31 91 96 158 103 154 64 1 -4 -63 -40 -113 -80 -108 -101 -85 -125 -131 -154 -159 -192 -213 -175 -235 -180 -191 -136 -144 -110 6 -91 -9 -123 -149 -143 -259 -215 -315 -176 -274 -117 -218 -23 606 -35 -279 -294 -482 -208 -254 -112 -189 -146 -146 -88 -80 -34 3 63 111 110 216 114 137 65 11 -18 -96 -81 -138 -100 -131 -47 -102 -58 -76 -100 -179 -140 -175 -116 -136 -48 -118 30 46 -69 -43 -92 -268 -172 -249 -132 -209 -105 -319 -68 181 139 408 -104 -568 -352 -325 -212 -198 -161 -266 -122 -188 15 -131 -10 13 43 99 33 106 72 -20 27 -124 -80 -237 -59 -183 -125 -169 -158 -195 -112 -202 -164 -242 -152 -245 -143 -286 -193 -243 -118 -191 -85 -61 28 -49 -91 -179 -160 -248 -98 -280 -160 -303 -120 -143 233 675 -16 -545 -391 -368 -195 -302 -179 -219 -123 -161 -119 -167 -101 -94 28 7 33 36 41 -17 -29 -83 -106 -194 -121 -198 -177 -172 -194 -178 -190 -212 -220 -222 -233 -258 -240 -237 -238 -238 -192 -195 -173 -162 -13 -34 -54 -53 -141 -235 -284 -268 -187 -276 -171 -309 -226 94 418 307 -293 -557 -482 -399 -275 -335 -265 -279 -268 -240 -228 -230 -144 -118 -53 -28 -32 -16 -34 -39 -100 -142 -152 -217 -194 -173 -171 -166 -127 -137 -108 -147 -132 -169 -189 -155 -113 -130 -136 -148 -104 -112 -54 -13 20 1 -18 -31 -156 -179 -172 -230 -132 -278 -210 -219 -110 452 279 -195 -540 -613 -427 -404 -271 -345 -333 -268 -257 -265 -227 -252 -163 -105 -20 37 0 19 -37 -92 -166 -164 -188 -238 -172 -181 -149 -160 -178 -138 -161 -265 -196 -228 -203 -255 -215 -194 -135 -134 -77 12 -17 19 -122 -202 -254 -280 -218 -328 -249 -368 -360 -184 262 496 -141 -537 -665 -497 -268 -326 -301 -293 -255 -328 -249 -242 -162 -145 -52 19 45 65 12 24 -45 -74 -137 -160 -180 -144 -147 -174 -92 -112 -107 -147 -195 -191 -151 -218 -123 -83 -106 -25 -16 29 -79 -117 -232 -299 -257 -307 -281 -382 -395 -289 -66 564 271 -447 -708 -686 -435 -390 -394 -305 -300 -295 -299 -294 -249 -247 -165 -110 -65 23 -26 -12 -83 -91 -154 -198 -226 -221 -205 -193 -196 -189 -202 -173 -180 -279 -187 -250 -237 -237 -203 -197 -179 -96 -80 -63 -92 -151 -272 -353 -331 -305 -330 -391 -383 -443 -342 250 510 -104 -630 -692 -504 -395 -386 -372 -356 -329 -339 -318 -284 -252 -171 -106 -51 -51 -11 -16 -47 -48 -163 -142 -197 -316 -229 -186 -197 -157 -211 -195 -195 -290 -233 -220 -241 -290 -206 -292 -253 -249 -335 -181 -127 -226 -191 -167 -265 -353 -325 -336 -322 -359 -412 -428 -435 64 648 128 -474 -689 -564 -411 -366 -307 -301 -271 -233 -267 -179 -214 -219 -88 22 -73 -6 65 10 -9 -61 -90 -150 -166 -135 -169 -139 -138 -138 -168 -154 -186 -210 -204 -237 -253 -227 -262 -228 -287 -363 -342 -180 -239 -149 -71 -69 -105 -154 -249 -333 -304 -301 -337 -292 -374 -300 -192 405 518 -186 -561 -475 -382 -301 -197 -175 -196 -182 -185 -110 -115 -58 -43 73 76 105 143 113 -5 29 8 -40 -32 -154 -169 -124 -113 -121 -141 -173 -156 -196 -188 -232 -192 -223 -308 -171 -220 -315 -265 -256 -173 -56 -63 -50 -118 -203 -237 -264 -202 -278 -247 -337 -272 -96 197 756 209 -351 -522 -463 -208 -200 -104 -147 -116 -71 -96 -41 -22 -54 71 143 163 224 124 137 103 7 -4 -62 -47 -136 -131 -206 -88 -73 -88 -87 -122 -122 -88 -146 -160 -198 -192 -157 -97 -41 33 -21 17 -55 -140 -149 -142 -206 -163 -226 -219 -263 -119 339 677 99 -429 -488 -320 -293 -128 -184 -129 -104 -111 -71 -26 -50 -39 0 93 157 164 149 138 29 -35 -75 -73 -171 -117 -186 -116 -100 -123 -142 -109 -142 -113 -172 -185 -176 -178 -207 -106 -120 -9 60 20 37 6 -98 -143 -173 -129 -222 -157 -224 -280 -220 205 817 242 -388 -519 -430 -172 -211 -116 -177 -145 -126 -128 -105 -80 -18 42 105 133 201 154 118 113 6 22 -88 -84 -162 -115 -119 -65 -78 -107 -129 -128 -152 -105 -152 -139 -154 -107 -118 -132 -134 -144 -145 -85 -32 60 76 28 -33 -96 -180 -157 -219 -189 -204 -171 -280 -194 158 471 271 -275 -454 -388 -392 -231 -301 -211 -267 -221 -203 -171 -139 -97 -75 -35 43 67 52 32 -5 -1 -124 -105 -161 -125 -137 -109 -126 -92 -60 -80 -85 -87 -93 -53 -91 -58 -77 -71 -99 -91 -75 -60 -92 -62 -86 -12 -30 13 77 74 73 37 -32 -71 -169 -139 -208 -142 -273 -240 -232 33 621 241 -205 -353 -468 -219 -325 -179 -206 -159 -184 -117 -111 -45 -35 75 82 177 176 159 198 169 131 146 27 96 -30 73 2 67 7 41 5 2 -20 48 -41 49 -51 -19 -60 -18 -89 -96 -104 -53 -129 -38 -42 -5 36 46 50 28 -47 -39 -162 -134 -168 -113 -188 -114 -237 -19 486 130 -9 -183 -460 -169 -250 -129 -89 -63 -98 14 -55 8 -4 89 168 180 280 212 266 195 198 145 62 76 -4 29 -15 -1 -6 19 -38 -21 -47 -16 -54 -47 -69 -52 -99 -38 -116 -37 -61 -26 32 16 96 -4 -48 -55 -156 -88 -214 -166 -126 -97 -154 22 471 76 114 -141 -455 -181 -181 -136 
#avR[uV]
36866 33711 29529 26371 22324 19188 14937 11468 7483 4318 136 163 181 166 135 174 234 211 255 237 277 289 257 293 223 258 245 187 234 226 147 207 227 186 224 199 149 228 210 130 120 130 135 136 115 172 180 137 155 121 173 152 134 211 164 171 86 41 111 117 94 124 87 33 85 65 77 86 74 102 90 72 50 82 2 31 71 -13 20 -8 -47 22 -26 -39 -5 32 -33 -42 -34 -64 -83 -112 -71 -39 -84 -26 -9 -44 -8 -16 -9 -87 -46 31 -82 -64 -93 -83 -62 -117 -61 -76 -119 -116 -105 -43 -87 -124 -118 -73 -71 -90 -29 -50 -161 -135 -119 -129 -137 -134 -132 -147 -119 -156 -172 -149 -145 -112 -178 -174 -176 -206 -182 -164 -132 -89 -58 -118 -100 -101 -93 -109 -173 -50 -31 -95 -244 -211 -166 -182 -98 -172 -160 -99 -195 -178 -162 -191 -103 -118 -142 -25 -72 -121 -181 -132 -175 -199 -130 -102 -166 -182 -84 -125 -220 -151 -87 -111 -118 -133 -146 -123 -145 -140 -157 -138 -214 -178 -81 -126 -104 -91 -149 -117 -82 -91 -213 -179 -19 61 -29 -213 -173 -210 -231 -153 -242 -156 -159 -190 -193 -128 -168 -170 -110 -122 -129 -156 -134 -112 -166 -113 -219 -156 -149 -210 -152 -162 -126 -141 -241 -199 -204 -178 -209 -151 -172 -242 -118 -180 -267 -176 -219 -167 -151 -229 -213 -134 -168 -127 -152 -132 -136 -238 -97 40 111 -171 -317 -241 -227 -215 -244 -219 -157 -183 -233 -235 -230 -184 -124 -122 -128 -119 -156 -143 -175 -137 -198 -187 -198 -187 -256 -185 -89 -258 -102 -152 -248 -183 -185 -205 -148 -199 -218 -243 -255 -243 -277 -259 -253 -276 -259 -226 -231 -239 -233 -276 -164 -292 -308 -203 -143 29 -218 -387 -211 -256 -321 -283 -281 -298 -264 -230 -273 -284 -225 -276 -203 -207 -238 -230 -279 -283 -266 -308 -307 -261 -298 -274 -295 -332 -283 -242 -314 -314 -293 -250 -235 -346 -310 -325 -385 -378 -312 -279 -383 -340 -280 -308 -313 -251 -331 -343 -290 -334 -310 -180 -205 -396 -256 -367 -363 -325 -364 -331 -416 -309 -304 -300 -281 -344 -274 -293 -318 -304 -347 -339 -283 -328 -320 -309 -334 -374 -328 -333 -348 -320 -330 -318 -301 -335 -320 -363 -336 -380 -401 -324 -354 -313 -313 -339 -262 -302 -264 -284 -215 -264 -302 -240 -222 -264 -248 -318 -255 -238 -300 -270 -261 -246 -193 -247 -198 -207 -235 -187 -159 -126 -182 -208 -236 -233 -186 -230 -204 -186 -163 -227 -220 -229 -210 -193 -117 -159 -161 -195 -167 -221 -247 -212 -183 -227 -257 -183 -170 -177 -128 -153 -121 -200 -110 -112 -107 -135 -261 -252 -113 -225 -224 -224 -199 -203 -147 -194 -173 -134 -175 -137 -71 -122 -99 -121 -186 -116 -94 -134 -107 -164 -156 -138 -163 -138 -138 -132 -78 -170 -124 -131 -119 -140 -155 -194 -152 -176 -239 -176 -170 -162 -111 -98 -108 -104 -113 -127 -61 -154 -71 -25 1 -99 -156 -151 -139 -176 -154 -134 -113 -127 -127 -112 -92 -103 -23 -26 -25 -84 -45 -90 -69 -107 -88 -64 -55 -124 -95 -185 -55 -94 -84 -93 -70 -155 -81 -105 -85 -121 -131 -84 -145 -116 -182 -100 -26 -113 -43 -65 -110 -81 -21 -100 7 31 134 35 -101 -74 -15 -51 -141 -77 -42 -83 -50 -90 29 4 -11 14 36 -17 17 -41 -50 -91 -46 -101 -46 -108 -63 -110 -76 -111 -36 -56 -58 -59 -70 -150 -72 -74 -84 -117 -106 -99 -57 -113 -65 -106 -6 -12 -51 -64 -51 3 0 6 84 -8 70 -28 28 -32 5 37 -27 -15 -45 -6 -34 -40 47 -25 30 17 37 7 -5 -31 -9 -75 -41 -12 4 -10 -12 -34 -9 -69 -45 -15 -44 -70 -38 -83 -28 -45 -76 -61 -54 -83 -82 -52 12 -46 11 -25 20 19 10 3 -19 50 67 47 119 -8 49 25 -20 -12 4 -8 -12 -12 35 8 9 -3 60 3 -13 1 20 5 -17 -11 75 -20 -21 -16 -56 -12 -49 -25 -38 -41 -6 -53 -18 -62 -114 -71 -93 -61 -76 -32 10 -16 -20 -16 -19 -9 -44 9 -20 -18 21 22 69 9 -5 7 -27 15 17 28 -20 25 75 8 69 26 14 31 13 27 3 9 5 -2 7 -21 -27 -21 9 -2 -2 -20 -44 -17 12 -36 -53 -37 -73 -47 -46 -38 0 4 21 22 39 31 12 95 80 93 110 34 -3 87 126 63 98 65 70 70 30 70 57 67 98 73 117 97 65 53 75 41 73 14 13 30 10 27 -6 3 1 3 8 -2 -2 -3 22 2 -14 -7 3 -5 -40 -34 -55 -52 -48 -32 -35 -19 8 8 9 52 4 98 34 110 145 18 87 37 74 8 -2 9 -53 13 11 -7 0 3 12 14 2 11 25 2 15 -15 1 -42 -94 -71 -104 -81 -83 -89 -38 -101 -97 -87 -113 -84 -67 -76 -86 -76 -156 -94 -46 -104 -51 -110 -134 -108 -127 -108 -122 -96 -67 -100 -65 -74 -67 -64 -67 -33 -151 63 86 0 141 -59 -50 -84 -137 -81 -108 -99 -167 -110 -108 -110 -116 -88 -44 -82 -78 -98 -112 -123 -135 -138 -130 -139 -186 -166 -189 -180 -176 -168 -166 -171 -186 -171 -132 -167 -195 -161 -142 -174 -172 -168 -120 -168 -203 -177 -201 -176 -191 -164 -134 -161 -115 -160 -142 -130 -109 -116 -164 -96 32 -89 -213 -196 -178 -192 -199 -201 -217 -202 -221 -202 -200 -178 -187 -172 -109 -175 -195 -195 -172 -205 -251 -213 -223 -215 -256 -218 -220 -219 -182 -197 -197 -211 -188 -235 -196 -190 -216 -197 -215 -220 -151 -220 -273 -195 -225 -226 -201 -194 -132 -179 -133 -164 -163 -148 -185 -138 -51 -100 -158 -226 -171 -217 -181 -180 -145 -236 -132 -176 -224 -209 -151 -159 -82 -184 -135 -180 -214 -160 -185 -177 -155 -254 -154 -171 -170 -208 -183 -199 -135 -179 -183 -153 -161 -198 -197 -216 -189 -212 -178 -209 -157 -201 -111 -100 -114 -105 -174 -102 -161 -106 -22 -227 138 -14 -237 -120 -121 -65 -130 -51 -63 -118 -108 -105 -61 -106 -71 -89 -16 -83 1 -93 -82 -71 -52 -63 -24 -50 -92 -64 -62 -71 -30 -24 -73 -36 4 -41 -67 -44 25 -88 0 -22 -58 -124 -63 -36 -82 -20 -30 10 29 -10 13 30 -31 10 113 110 236 110 -83 -10 -22 1 19 24 19 45 8 12 37 24 74 123 85 66 141 89 47 56 100 57 0 72 82 23 44 57 74 71 72 61 42 30 99 43 39 74 65 70 8 21 25 45 42 -19 101 29 55 121 37 120 71 112 7 61 227 226 489 133 -78 22 5 145 78 47 102 72 78 65 91 138 143 183 163 159 149 109 119 97 116 47 69 93 79 25 65 68 6 17 7 31 19 38 41 -17 -13 -13 -6 -33 -17 -9 -35 -54 -10 -19 -48 9 16 -20 0 21 -13 11 -21 72 198 331 124 -147 -24 -57 -44 -6 20 12 -4 15 -2 -41 -8 64 27 25 90 16 -10 -9 -35 -25 -43 -28 16 -58 -56 -64 -63 -58 -69 -46 -30 -54 -51 -75 -49 -35 -65 -121 -98 -115 -100 -89 -107 -6 -14 -69 -29 -38 -30 -5 -26 -36 67 102 156 73 -70 12 -12 48 -1 -18 7 -31 48 -49 -11 18 -29 16 20 50 37 -53 -73 -42 -5 -55 -66 -39 -92 -80 1 -53 -37 -33 -80 -55 -19 -90 6 -53 -182 -120 -113 -81 -110 -70 7 -55 -56 -22 5 -10 -25 0 -29 49 107 156 51 -60 -2 -14 6 24 15 -39 -72 -6 -3 17 11 9 62 -2 24 -27 -39 -6 13 -22 -57 -64 -16 -39 -67 -10 -23 -50 -59 -47 -20 -19 -51 -45 -43 -51 -47 -62 -52 -33 -27 -30 -43 -36 91 82 4 60 32 27 -41 76 98 241 190 -81 13 7 5 74 55 1 -23 -13 31 47 3 45 60 46 72 46 31 -13 -13 -29 -20 -6 -30 -24 -91 -48 -24 -74 -8 -12 -44 -47 -35 -89 -58 -12 -55 -13 -61 -51 -40 -116 -25 -7 8 15 -21 20 -2 41 -5 -1 -94 34 187 236 371 22 -117 -66 -42 27 12 6 -12 -33 -26 -40 -30 90 38 34 89 78 35 -37 36 -39 -18 36 -85 -85 -48 -73 -50 -39 -50 -14 -87 -46 -29 -102 -48 -4 -10 -60 -82 -6 2 -57 -75 -103 -87 -87 -60 -51 -53 6 -24 -21 -44 -30 -56 -145 27 145 288 128 -207 -139 -70 -12 -87 -118 -80 -97 -94 -46 -19 -52 -34 -65 -39 10 3 -5 -93 -31 -63 -102 -76 -71 -52 -77 -49 -19 -110 -74 -69 -111 -38 -38 -108 -43 -52 -80 -31 -63 -92 -78 -62 -106 -114 -56 -94 -30 -88 -62 -26 -39 -28 -28 -173 -75 42 40 146 -115 -108 -84 -119 -3 -74 -134 -136 -86 -101 -73 -30 -48 -43 -47 -83 -11 -100 -59 -62 -129 -60 -72 -73 -67 -57 -68 -116 -132 -84 -41 -80 -50 -40 -82 -125 -50 -11 -112 -126 -119 -100 -79 -122 -51 -68 -106 -84 -24 -14 -77 -24 -60 -77 6 -31 62 -62 -65 -29 -81 -55 -94 -84 -115 -86 -41 -146 -80 -7 -35 -61 -32 -12 -57 -60 -82 -88 -89 -21 -70 -100 -77 -103 2 -49 -97 -51 -53 -64 -15 -26 -12 -33 -121 -115 -93 -120 -76 -111 -87 -45 -49 -57 -20 -14 -5 4 -12 -93 -2 -18 96 201 -30 -36 -2 -17 -15 -60 -18 -23 -17 36 0 31 -26 -59 90 39 41 52 29 -74 -25 -2 -53 16 24 -44 -34 18 -5 -27 22 -19 2 59 -20 -72 -49 -2 -9 -29 27 -53 -77 -67 -68 -87 -60 -26 3 -39 5 -4 -17 57 -19 51 -62 -17 153 96 335 31 -5 50 -32 65 -23 35 36 36 47 57 79 52 52 98 206 98 112 80 79 85 16 40 41 84 28 -8 12 -4 -22 -5 1 -55 -2 -49 -72 -6 -36 -32 -37 -64 -54 -128 -45 38 -23 -51 -70 -146 -156 -96 -5 -44 -35 -25 -56 -21 17 3 35 -49 -71 1 240 285 25 -102 -100 -36 -10 -61 5 -23 -50 -68 -11 -55 -31 39 49 16 24 -6 0 -93 -84 -11 -68 -51 -48 -90 -103 -107 -128 -57 -75 -59 -98 -71 -94 -126 -73 -52 -109 -77 -32 -88 -93 -81 -79 -60 -77 -61 -147 -103 -102 -181 -64 -14 -45 -20 -11 -76 -37 -12 -83 60 46 -96 -5 -93 -76 -45 -79 -117 -104 -32 -107 -79 -99 -57 -40 -95 -70 -107 -34 -118 -82 -121 -135 -108 -131 -145 -127 -180 -94 -114 -116 -105 -118 -116 -50 -106 -123 -108 -66 -119 -90 -59 -58 -56 -121 -155 -170 -153 -55 -129 -92 -65 -62 -10 -52 -49 -79 -17 -93 28 39 -163 51 -48 -140 -13 -73 -72 
#avL[uV]
57288 52166 45932 40329 33809 28239 22754 18095 11742 6312 113 101 44 73 90 40 15 34 -4 -25 -93 -95 -90 -141 -62 -49 4 48 72 51 80 85 48 82 61 112 136 127 98 130 89 38 53 19 105 88 145 180 120 196 142 218 241 -45 -411 -422 166 459 371 261 181 155 146 179 118 124 182 137 69 30 14 13 -1 -19 59 80 169 158 165 183 208 163 177 203 185 180 225 225 200 270 170 125 115 97 223 201 237 272 220 346 295 395 335 20 -316 -315 289 553 436 345 263 260 236 234 225 212 266 231 177 181 85 37 46 128 166 149 284 252 230 243 191 278 276 227 241 273 239 260 286 287 278 212 187 202 210 235 312 356 287 367 285 393 423 308 -115 -534 129 619 607 527 348 383 356 317 348 347 307 327 244 235 182 165 203 132 167 169 255 252 261 356 289 358 325 269 344 323 285 285 321 318 323 414 333 343 323 277 270 237 302 287 303 348 303 371 391 397 431 437 109 -518 42 588 518 596 497 372 489 363 357 364 363 346 309 315 221 191 195 179 206 153 254 317 315 314 356 357 405 356 301 308 397 329 374 387 381 330 344 405 417 334 356 312 273 196 310 308 321 321 365 312 349 436 383 450 243 -336 -161 390 601 739 509 425 506 423 411 378 417 399 367 364 375 228 264 204 251 234 284 289 384 335 378 346 424 377 370 424 363 366 432 432 395 392 379 459 451 446 436 372 402 289 378 316 321 360 399 394 441 419 432 492 452 157 -230 -135 461 664 472 446 505 392 429 356 380 374 343 318 287 251 185 162 137 189 190 249 290 285 346 312 427 324 351 375 370 339 409 394 378 352 373 429 368 323 412 311 212 219 303 316 371 398 420 400 407 439 464 413 89 -246 133 577 472 555 472 380 432 369 421 352 364 340 308 332 232 202 171 165 207 206 237 299 372 346 389 350 362 340 375 336 370 337 364 357 372 335 356 329 251 237 238 251 359 364 379 375 387 370 374 391 272 -147 -122 387 441 513 456 334 443 351 370 375 299 338 274 291 257 235 194 177 185 210 265 276 287 308 322 300 305 335 327 326 339 316 311 348 341 335 312 291 324 263 218 211 255 209 268 267 295 279 297 324 272 252 81 -218 254 461 407 488 522 440 462 436 407 409 396 370 365 336 285 275 251 233 288 257 291 313 332 361 368 370 366 369 369 366 341 388 353 407 367 381 374 411 344 302 346 273 306 331 299 313 348 347 359 356 298 408 274 -73 73 323 385 533 444 398 461 378 404 397 382 350 331 313 268 191 229 156 225 181 254 276 300 282 307 326 347 364 354 305 377 305 333 336 343 298 324 304 314 227 285 196 298 226 248 291 305 269 360 287 311 298 267 47 -303 79 364 411 338 294 400 308 327 293 284 257 210 163 191 181 81 100 55 56 101 99 169 178 194 206 221 180 233 207 207 142 213 142 217 237 222 162 212 186 167 167 109 153 138 187 180 157 247 219 243 122 213 122 -85 18 122 192 271 328 330 254 329 240 311 220 261 230 196 190 149 107 57 94 64 124 144 174 231 180 216 166 223 212 209 230 219 189 219 242 228 242 222 202 238 172 128 162 147 176 211 221 246 238 255 184 245 155 176 23 -210 103 233 271 314 237 336 268 280 229 243 208 196 158 163 126 27 96 78 100 129 134 213 179 205 204 241 206 230 192 209 187 202 195 185 188 171 161 139 129 94 134 169 155 231 189 250 190 231 154 214 61 -383 119 305 193 274 244 288 248 273 227 212 189 191 156 108 114 47 69 3 58 85 92 150 144 226 181 194 186 190 185 170 180 187 184 197 185 190 177 186 144 108 121 71 126 122 139 214 174 204 180 225 85 203 49 -301 149 300 161 263 252 266 266 262 236 254 203 198 153 140 110 33 61 35 81 56 88 110 143 191 157 177 163 203 174 174 172 168 184 195 186 182 186 212 194 204 169 179 154 131 131 70 125 121 164 228 204 243 210 270 151 281 64 -100 197 90 191 320 346 355 351 360 327 309 291 289 242 239 186 146 132 89 114 74 125 104 141 174 180 221 194 223 207 207 226 236 236 229 246 234 244 245 253 304 262 257 257 276 268 264 242 244 215 179 209 218 256 312 298 316 307 311 233 424 94 -147 149 34 269 428 361 407 343 331 292 322 251 258 199 193 122 39 70 -12 48 6 66 68 105 131 131 168 163 184 185 176 189 170 204 213 219 221 244 264 247 267 249 290 253 267 225 253 204 122 188 144 196 264 255 290 289 310 250 347 183 337 112 -441 131 388 349 469 298 299 262 291 230 224 188 204 133 124 62 -13 15 -20 19 -29 54 124 110 159 137 213 169 191 185 155 192 197 221 213 262 258 226 284 234 251 212 184 192 131 166 119 205 212 204 260 251 303 214 287 162 256 86 -429 76 289 334 447 265 281 174 214 227 176 154 172 130 73 32 -42 9 -94 4 4 31 84 102 150 188 181 161 183 139 168 143 125 165 226 182 212 186 201 144 183 83 54 156 111 169 257 180 244 151 243 130 320 104 -124 8 -375 85 545 325 304 192 214 146 231 151 195 40 129 61 25 12 -66 16 -80 -7 56 15 119 92 190 69 183 126 158 154 161 96 188 141 179 135 217 129 202 189 182 99 173 126 78 -3 78 78 149 114 171 79 203 105 243 85 50 -230 -625 -42 450 298 287 146 217 122 154 69 117 83 106 63 33 -83 -48 -58 -97 -75 -10 -5 12 51 146 55 107 121 107 117 96 106 122 134 146 159 144 158 158 141 145 109 142 119 109 -12 4 50 -10 91 148 152 182 80 171 72 228 138 -184 -427 -475 153 457 350 296 133 211 175 157 165 140 138 127 38 17 -51 -60 -55 -62 -28 -30 26 48 90 128 99 89 115 92 60 100 73 106 83 117 122 96 93 104 109 114 95 93 45 27 12 4 23 48 112 126 139 172 88 215 152 175 46 -438 -375 84 479 472 349 325 206 248 244 203 185 200 191 193 89 65 2 -73 -8 -9 32 87 137 145 155 170 158 164 144 152 162 138 144 214 174 196 190 216 179 178 162 150 115 40 58 38 94 159 225 224 182 261 190 289 288 104 -247 -450 69 438 492 379 177 245 235 216 207 222 211 188 112 123 31 -24 -59 -67 17 18 55 58 130 153 154 154 150 130 96 103 97 151 174 153 158 160 119 153 139 76 53 33 94 84 202 252 203 227 216 299 296 232 25 -476 -281 310 562 516 333 289 283 221 245 257 228 222 178 179 119 51 50 -29 33 29 66 62 127 177 202 174 173 178 152 153 177 159 158 220 150 213 200 199 178 172 165 98 77 61 84 135 222 219 207 226 217 277 273 352 218 -236 -503 -17 513 512 374 293 252 251 266 259 261 223 189 187 105 49 15 2 -14 -3 42 43 137 116 151 252 184 185 172 130 195 150 152 240 199 183 226 247 161 247 196 217 277 156 153 182 147 121 191 276 233 253 220 272 309 368 308 -142 -604 -281 344 575 456 329 260 224 222 209 192 213 155 176 119 47 -33 10 -34 -66 10 -10 65 76 94 168 144 150 141 129 123 151 123 183 181 167 228 214 173 202 201 256 275 255 164 217 163 97 95 109 142 213 247 240 237 275 234 309 297 131 -377 -533 75 524 426 321 232 191 190 187 186 186 105 95 70 50 -22 -37 -84 -109 -82 50 -6 25 81 62 152 153 132 109 100 161 166 152 203 160 193 198 189 257 168 180 268 245 231 161 95 104 66 136 167 222 229 164 228 199 267 290 110 -169 -587 -230 321 446 389 215 151 115 177 155 96 122 68 32 64 -31 -83 -80 -162 -43 -73 -46 59 33 83 72 135 127 188 124 121 108 86 132 117 86 151 182 174 150 174 136 90 25 56 47 67 139 165 149 167 129 208 177 228 128 -257 -492 -106 353 398 255 260 123 185 139 136 127 74 92 78 33 18 -39 -102 -117 -83 -73 18 70 101 65 164 138 178 138 74 117 155 108 133 117 136 152 138 150 216 137 136 67 -7 39 15 18 98 135 140 104 169 115 174 256 166 -145 -661 -282 306 407 324 138 165 117 142 120 103 78 79 44 26 -1 -124 -119 -171 -142 -103 -48 7 -16 93 54 109 108 106 40 61 94 85 106 113 49 124 141 141 81 93 114 87 135 147 98 58 -1 -26 -8 23 91 132 120 173 113 163 103 241 154 -195 -401 -371 191 343 265 310 140 237 140 182 148 128 99 64 46 30 -22 -136 -99 -95 -64 -35 -41 85 58 100 51 88 86 88 72 56 63 63 93 71 65 104 47 75 70 93 100 83 110 91 27 76 35 58 63 19 -7 -52 -6 42 66 155 115 147 105 187 204 209 -25 -586 -324 141 316 401 182 249 165 151 131 164 122 89 61 42 -76 -86 -141 -144 -116 -149 -80 -55 -104 13 -46 47 -10 50 3 59 -2 33 28 64 0 78 26 74 40 100 52 83 116 124 81 136 59 70 35 46 17 13 69 67 36 144 111 132 123 160 92 219 -15 -388 -49 9 184 383 149 227 155 118 63 127 29 91 22 23 -19 -91 -81 -192 -99 -158 -86 -81 -54 18 15 67 68 58 58 63 38 87 74 60 65 102 89 85 99 119 58 116 55 107 97 60 64 -44 67 82 73 148 72 186 149 134 82 162 -30 -373 24 -111 130 411 142 172 138 
#avF[uV]
-94154 -85877 -75462 -66700 -56134 -47427 -37692 -29564 -19225 -10630 -250 -265 -225 -239 -226 -215 -249 -245 -251 -212 -184 -194 -167 -151 -161 -209 -250 -236 -306 -278 -228 -293 -276 -268 -285 -311 -285 -356 -309 -260 -209 -169 -189 -156 -220 -260 -325 -317 -276 -317 -316 -371 -375 -166 246 251 -253 -501 -483 -379 -276 -280 -234 -212 -204 -189 -259 -224 -143 -132 -105 -85 -48 -63 -62 -111 -240 -144 -186 -174 -161 -186 -150 -164 -179 -212 -192 -183 -165 -205 -86 -13 -43 -58 -139 -175 -228 -228 -212 -329 -285 -307 -289 -52 399 380 -196 -469 -373 -228 -202 -184 -117 -118 -119 -169 -179 -106 -58 -107 -14 52 -17 -78 -5 -14 -165 -123 -93 -108 -59 -130 -157 -71 -69 -124 -93 -148 -108 -112 -102 -5 -4 -38 -77 -145 -254 -238 -187 -265 -191 -284 -250 -258 147 630 115 -407 -441 -344 -249 -211 -195 -217 -152 -168 -144 -135 -141 -116 -39 -139 -130 -10 13 -36 -80 -53 -131 -253 -123 -176 -240 -143 -124 -171 -198 -173 -202 -184 -176 -290 -188 -202 -166 -138 -56 -58 -220 -160 -199 -257 -154 -253 -309 -306 -217 -257 -90 456 -13 -374 -345 -385 -266 -218 -246 -206 -198 -173 -169 -218 -140 -144 -111 -68 -65 -23 -71 -41 -88 -204 -95 -157 -207 -146 -253 -194 -175 -166 -155 -130 -170 -209 -172 -178 -171 -162 -299 -154 -88 -135 -54 -29 -159 -79 -108 -187 -196 -184 -197 -304 -247 -211 -146 296 50 -219 -284 -498 -281 -210 -261 -204 -254 -195 -183 -164 -136 -180 -251 -105 -136 -85 -95 -90 -109 -152 -185 -147 -180 -159 -167 -192 -280 -166 -261 -213 -183 -248 -210 -187 -231 -259 -233 -203 -180 -129 -124 -30 -125 -40 -62 -133 -168 -155 -208 -142 -267 -199 -143 45 373 105 -243 -277 -261 -190 -183 -109 -147 -58 -115 -143 -70 -33 -62 25 18 44 101 40 89 34 -23 23 -38 -50 -129 -49 -55 -42 -86 -96 -94 -79 -85 -102 -138 -82 -58 1 -27 67 99 59 79 24 -90 -89 -106 -149 -75 -95 -173 -79 220 426 72 -180 -215 -188 -109 -55 -68 -38 -5 -43 -60 -39 -26 11 42 91 146 138 139 133 46 28 -52 -37 -55 23 -33 -7 -27 -15 -39 -19 -62 -22 -52 28 -20 51 149 87 116 62 -45 -25 -116 -72 -123 -85 -158 -127 30 388 345 -123 -193 -195 -200 -96 -142 -80 -108 -128 -105 -91 -75 -84 -22 -48 -34 -51 -3 -2 -29 -43 -100 -77 -118 -114 -141 -107 -106 -96 -129 -123 -193 -189 -180 -139 -145 -70 -76 -50 -35 15 2 -25 -98 -89 -166 -125 -176 -124 -162 -140 25 353 7 -209 -294 -262 -297 -216 -263 -233 -260 -214 -223 -235 -189 -198 -213 -152 -151 -112 -101 -141 -196 -178 -224 -196 -212 -231 -202 -231 -230 -233 -262 -218 -229 -276 -247 -241 -219 -216 -192 -126 -106 -96 -136 -169 -188 -214 -239 -242 -246 -228 -237 -254 -202 98 -75 -223 -228 -381 -305 -221 -307 -243 -290 -269 -254 -237 -238 -210 -244 -164 -203 -71 -179 -91 -185 -168 -212 -217 -251 -202 -251 -179 -299 -210 -293 -212 -262 -181 -262 -193 -239 -183 -182 -142 -140 -80 -116 -125 -222 -177 -262 -203 -249 -205 -290 -197 -275 -78 169 -114 -262 -337 -322 -243 -259 -231 -284 -210 -233 -167 -240 -167 -180 -196 -117 -83 -72 -14 -51 -8 -122 -77 -147 -97 -157 -70 -157 -95 -170 -85 -155 -83 -147 -87 -149 -87 -128 -69 -60 -68 -52 -40 -72 -80 -173 -144 -195 -155 -192 -125 -213 -129 1 -10 -192 -163 -300 -295 -335 -292 -302 -225 -265 -213 -226 -190 -243 -165 -179 -124 -95 -101 -58 -92 -134 -99 -190 -168 -221 -156 -210 -178 -199 -160 -173 -174 -175 -172 -189 -158 -194 -156 -162 -110 -73 -79 -65 -123 -224 -174 -258 -213 -275 -204 -256 -159 -156 -74 142 -150 -352 -262 -364 -262 -316 -256 -284 -220 -230 -195 -231 -167 -172 -123 -87 -100 -65 -101 -149 -140 -195 -167 -280 -184 -219 -190 -174 -180 -159 -162 -164 -154 -179 -134 -152 -98 -24 -57 -1 -73 -93 -122 -242 -173 -230 -173 -212 -144 -169 -70 404 -100 -326 -215 -343 -254 -282 -255 -246 -242 -230 -217 -171 -181 -184 -122 -117 -96 -17 -90 -99 -119 -153 -153 -231 -179 -202 -164 -162 -163 -180 -177 -185 -164 -152 -168 -203 -141 -132 -107 -34 -74 -24 -87 -122 -143 -235 -196 -243 -212 -238 -181 -283 -143 191 -184 -297 -248 -390 -315 -364 -332 -332 -306 -285 -273 -255 -221 -239 -183 -150 -158 -101 -134 -132 -130 -184 -158 -205 -188 -188 -191 -196 -178 -176 -175 -177 -182 -193 -182 -204 -189 -197 -187 -207 -164 -139 -120 -75 -79 -21 -93 -85 -145 -237 -212 -252 -262 -274 -249 -315 -175 -45 -216 -178 -229 -395 -354 -353 -360 -307 -340 -321 -284 -289 -246 -251 -201 -148 -144 -115 -116 -89 -109 -105 -99 -80 -109 -117 -113 -140 -118 -169 -125 -139 -148 -116 -162 -167 -167 -158 -176 -147 -167 -211 -152 -225 -158 -130 -133 -117 -106 -56 -112 -151 -156 -247 -223 -248 -243 -243 -199 -272 -157 61 -148 -176 -210 -378 -276 -269 -262 -223 -193 -154 -140 -149 -89 -77 -33 5 11 90 50 105 56 66 33 0 8 18 3 5 -5 0 -21 -3 -33 -27 -48 -89 -76 -68 -86 -124 -75 -117 -84 -146 -57 -49 -26 78 -11 46 -31 -130 -93 -175 -129 -167 -119 -238 -66 -173 -15 408 -42 -175 -153 -291 -105 -99 -61 -74 -28 -2 13 -4 44 63 109 123 160 216 175 202 151 126 102 64 77 43 48 28 33 27 5 0 -9 -25 -26 -62 -35 -68 -36 -35 7 -32 27 141 29 105 21 -11 -10 -128 -72 -169 -50 -123 -13 -70 51 480 23 -130 -107 -275 -47 -100 5 -69 8 -43 21 52 79 78 127 125 175 230 176 210 128 101 74 5 66 -27 10 -13 68 14 56 9 14 -42 -28 -50 11 -3 72 5 128 124 52 45 31 -145 -79 -130 -46 -69 -27 -159 1 147 218 236 -71 -307 -204 -183 -126 -83 -95 -168 -32 -86 64 -68 45 45 77 82 67 78 101 25 56 -66 -28 -166 -19 -91 -61 -96 -83 -131 -72 -115 -104 -184 -93 -150 -85 -227 -100 -182 -77 -114 -1 -14 39 3 -58 -119 -125 -200 -68 -216 -135 -211 -95 -164 119 388 -67 -367 -288 -264 -147 -236 -146 -174 -115 -125 -95 -144 -88 -107 -40 -37 -8 -43 -14 -36 -50 -113 -108 -145 -127 -190 -144 -151 -174 -170 -178 -195 -196 -188 -190 -243 -202 -197 -216 -211 -179 -151 -140 -134 -32 -47 -30 -90 -120 -203 -274 -219 -201 -242 -185 -235 -200 -43 201 -14 -286 -379 -373 -301 -279 -290 -223 -260 -237 -219 -203 -218 -177 -160 -131 -103 -104 -87 -80 -89 -123 -164 -138 -198 -192 -169 -140 -157 -129 -106 -90 -114 -115 -136 -161 -137 -76 -90 -95 -108 -61 -75 -36 7 42 6 -4 0 -122 -142 -119 -172 -110 -202 -164 -153 -119 239 43 -208 -331 -447 -291 -281 -200 -268 -256 -199 -200 -198 -149 -184 -154 -93 -28 -16 -8 20 -23 -51 -112 -101 -126 -187 -99 -107 -80 -88 -104 -69 -97 -183 -120 -145 -114 -166 -143 -113 -40 -51 0 59 31 68 -88 -144 -155 -195 -144 -231 -184 -263 -251 -172 145 294 -142 -367 -505 -366 -226 -244 -217 -223 -176 -271 -162 -176 -131 -94 -47 4 8 30 36 54 -12 -52 -75 -87 -115 -61 -70 -131 -42 -65 -63 -70 -119 -134 -68 -167 -65 28 -19 37 28 77 -24 -92 -146 -195 -181 -233 -205 -274 -296 -202 -74 369 125 -361 -501 -513 -319 -295 -308 -237 -205 -185 -221 -218 -195 -191 -128 -114 -47 5 -5 10 -59 -75 -104 -119 -137 -157 -134 -111 -142 -130 -126 -100 -111 -199 -130 -162 -154 -156 -126 -124 -103 -46 -43 -33 -53 -91 -186 -310 -289 -231 -277 -309 -300 -311 -294 138 261 -173 -431 -526 -382 -298 -326 -307 -267 -235 -248 -254 -237 -190 -151 -109 -61 -74 -31 -27 -28 -29 -107 -96 -144 -222 -160 -94 -123 -105 -121 -142 -140 -195 -151 -147 -136 -188 -148 -191 -183 -156 -225 -116 -36 -157 -140 -129 -206 -254 -254 -251 -262 -266 -308 -274 -343 -45 368 -89 -367 -458 -390 -287 -288 -237 -228 -197 -158 -187 -114 -145 -209 -85 0 -99 -43 31 26 -25 -26 -58 -131 -82 -59 -102 -67 -78 -83 -101 -108 -96 -134 -138 -126 -165 -168 -191 -140 -174 -269 -258 -106 -142 -60 -9 -8 -48 -90 -159 -253 -216 -215 -230 -204 -252 -152 -158 231 244 -203 -317 -287 -251 -220 -104 -72 -107 -88 -92 -59 -76 -17 -15 88 77 73 106 87 42 38 38 20 13 -80 -101 -54 -60 -81 -51 -92 -82 -91 -122 -154 -90 -145 -205 -88 -149 -205 -152 -153 -98 10 9 -9 -42 -137 -133 -166 -138 -189 -171 -238 -117 -34 127 547 83 -206 -337 -305 -96 -148 -40 -43 -19 -10 -21 5 -1 -16 75 131 164 174 143 132 108 70 26 -10 1 -68 -69 -120 -8 10 -23 -44 -51 -66 -46 -69 -57 -123 -138 -61 -9 28 75 23 74 -15 -71 -58 -65 -142 -115 -131 -152 -167 -50 251 524 43 -291 -333 -225 -179 -68 -91 -55 -21 -40 -32 53 2 -25 17 100 134 129 140 133 63 17 -12 -44 -93 -37 -100 -35 -76 -67 -57 -56 -80 -52 -121 -126 -126 -117 -94 -22 -43 52 83 71 71 27 -49 -78 -119 -89 -163 -120 -161 -163 -163 163 564 81 -275 -371 -321 -120 -150 -56 -123 -97 -86 -114 -78 -75 0 61 33 80 130 89 74 122 17 18 -39 -71 -134 -64 -72 -58 -55 -66 -107 -86 -115 -108 -103 -68 -91 -79 -83 -84 -115 -81 -70 -30 10 89 87 34 -27 -52 -138 -115 -156 -171 -143 -154 -179 -136 41 305 35 -222 -338 -316 -278 -206 -214 -176 -218 -184 -175 -157 -144 -98 -82 -76 -70 1 -17 -15 -43 -43 -101 -99 -142 -135 -117 -77 -101 -67 -34 -57 -64 -38 -68 -15 -32 -40 -39 -37 -55 -36 -29 18 -46 -66 -52 16 11 83 136 103 58 50 -6 -41 -98 -93 -165 -108 -222 -155 -138 24 345 38 -166 -213 -300 -146 -238 -104 -157 -107 -113 -54 -78 -6 -10 36 36 125 119 123 148 174 140 115 55 97 1 100 53 104 69 59 41 31 33 72 16 100 -1 11 9 24 -51 -28 -31 0 -57 0 7 26 101 86 89 112 -3 -22 -99 -90 -120 -46 -122 -79 -135 -44 341 146 -4 -91 -307 -104 -148 -38 -14 -31 -20 50 8 35 17 114 161 189 227 218 241 207 216 163 112 130 59 112 36 56 53 67 30 41 -10 40 20 18 -18 20 -29 0 -58 0 14 57 110 88 100 61 10 -8 -86 -61 -134 -99 -54 -64 -69 2 333 139 60 -82 -271 -129 -99 -66 
