ADC Sampling rate (Hz):
100
Fragment duration (sec):
21
Number of samples exported by each lead:
2099

#I[uV]
-8760 -8033 -7006 -5900 -5222 -4195 -3491 -2888 -1704 -604 26 67 74 62 41 8 -2 -22 -28 -26 4 17 9 28 36 40 44 42 71 19 -247 -533 -161 178 32 1 -18 7 -14 11 -3 -20 -22 -34 -31 -59 -58 -64 -87 -97 -102 -142 -141 -142 -129 -104 -60 -18 -39 7 6 42 51 43 48 57 18 16 16 12 20 16 15 -4 21 48 6 35 38 31 35 13 52 19 -6 -21 -8 -15 14 24 37 46 32 56 75 135 95 -288 -476 -190 103 74 0 85 52 77 37 35 37 16 21 24 0 -16 -44 -27 -41 -100 -83 -110 -80 -72 -49 -31 -35 8 24 63 37 60 31 68 71 43 49 37 44 53 22 42 32 55 65 49 52 40 60 55 41 37 45 57 29 16 -15 -21 -14 -30 26 32 -2 30 20 55 32 61 -64 -546 -517 -120 29 -31 -51 22 -12 20 -19 -8 -14 -6 1 0 -26 -37 -30 -70 -70 -79 -88 -109 -79 -103 -73 -14 -14 12 -6 36 29 50 38 42 46 24 26 35 28 19 36 12 16 27 32 47 71 44 22 54 49 59 42 42 36 50 26 -6 -1 -15 -9 31 56 34 43 59 40 95 110 -5 -430 -532 -24 82 -11 91 62 72 91 110 68 47 41 56 26 -7 -13 -14 -22 -59 -75 -109 -82 -79 -81 -53 -22 44 41 63 93 66 87 74 82 80 94 81 68 63 65 85 69 57 79 73 59 49 61 91 67 80 73 59 51 58 66 65 32 49 14 -1 -11 -8 42 55 56 75 67 79 52 78 81 0 -271 -466 2 98 -51 39 19 39 63 39 35 22 -2 7 -16 -38 -51 -48 -91 -94 -103 -122 -138 -127 -81 -63 -56 -31 -27 41 22 59 58 41 71 68 48 45 38 49 38 38 61 44 39 27 35 26 24 55 19 48 40 29 16 18 15 2 -22 -17 -30 -54 -29 -13 22 38 16 34 29 43 0 39 -156 -487 -16 103 -21 40 20 68 71 58 51 54 58 63 24 12 -21 -1 -47 -69 -40 -82 -83 -104 -69 -82 -41 -46 -3 -15 2 56 46 77 53 54 78 53 46 47 51 37 21 38 20 41 26 15 35 54 57 34 24 51 63 41 38 64 19 39 32 -9 14 4 0 73 42 53 45 48 42 67 -17 78 -177 -610 -39 79 -78 47 43 54 26 77 37 30 23 25 14 -5 -16 -8 -43 -100 -64 -107 -82 -108 -68 -63 -42 -32 -13 5 -7 35 17 41 48 58 76 99 117 141 174 210 218 254 325 340 362 414 436 452 456 509 524 524 532 554 559 562 560 577 597 567 561 551 538 532 506 549 553 574 585 557 564 573 552 611 443 -25 28 403 463 476 523 551 548 517 506 514 504 470 469 453 416 411 379 341 319 297 260 258 230 259 253 293 335 339 353 346 371 367 366 363 359 358 356 357 319 316 325 325 303 300 320 291 315 308 293 289 280 251 271 289 274 260 249 235 255 234 215 210 169 174 142 148 154 164 193 164 198 187 137 163 84 177 -147 -629 -7 118 -23 112 91 106 98 92 60 84 35 37 37 20 -23 -17 -53 -41 -43 -100 -65 -128 -75 -98 -57 -40 -43 -28 -36 19 -21 -22 -4 6 -16 -4 -41 -7 -24 -14 -50 -19 -51 -35 -62 -44 -60 -42 -70 -40 -50 -26 -82 -69 -66 -64 -87 -45 -106 -57 -97 -98 -130 -120 -115 -175 -165 -155 -126 -99 -122 -86 -155 -77 -179 -69 -218 -606 -196 -145 -178 -110 -135 -79 -135 -104 -152 -125 -115 -116 -171 -137 -196 -164 -196 -209 -219 -237 -234 -266 -257 -258 -227 -211 -233 -146 -159 -123 -140 -120 -136 -110 -155 -126 -112 -138 -143 -142 -154 -133 -136 -146 -160 -143 -141 -147 -147 -145 -145 -155 -160 -142 -138 -139 -159 -146 -141 -153 -161 -175 -178 -204 -191 -202 -154 -143 -160 -130 -195 -122 -166 -94 -256 -485 -247 -254 -141 -109 -183 -103 -138 -122 -120 -119 -120 -116 -127 -116 -151 -141 -183 -207 -212 -230 -209 -250 -242 -247 -199 -205 -163 -143 -122 -102 -107 -96 -90 -64 -90 -101 -91 -101 -104 -93 -86 -114 -115 -119 -90 -97 -87 -106 -91 -82 -95 -78 -96 -94 -91 -100 -78 -97 -109 -128 -145 -141 -136 -123 -70 -79 -86 -56 -102 -28 -89 -57 -220 -641 -374 3 -26 -104 -69 -75 -85 -74 -69 -55 -34 -18 -3 -6 17 36 33 28 27 35 28 30 67 66 121 148 175 230 240 268 267 275 276 269 311 275 277 290 249 267 278 270 258 262 255 255 283 250 265 265 274 269 244 252 240 266 256 256 260 254 238 234 204 211 198 200 238 252 230 248 211 266 244 255 109 -398 -359 79 199 163 204 180 159 177 174 147 146 153 137 122 108 79 68 41 16 -5 -26 -45 -38 -32 -7 23 68 60 87 108 111 118 115 113 117 131 118 100 89 80 84 87 87 86 76 76 75 72 61 82 60 36 31 60 18 6 18 7 7 17 -10 20 0 -20 -34 -58 -67 -55 -40 -18 -23 -11 -24 -4 -19 0 21 -15 -396 -754 -391 -28 -11 2 47 -6 10 -13 -30 -24 -45 -30 -51 -30 -87 -87 -116 -113 -124 -166 -157 -182 -161 -133 -110 -83 -43 -51 -7 -26 -16 1 -25 -23 -22 -13 -29 -24 -23 -37 -59 -51 -63 -79 -68 -59 -66 -61 -66 -83 -66 -72 -57 -58 -59 -59 -53 -55 -42 -42 -52 -43 -54 -42 -56 -62 -41 -108 -113 -111 -101 -88 -28 -61 -85 -32 -29 -18 -14 30 -301 -774 -500 22 -20 -64 12 -38 -10 -49 -43 -74 -73 -37 -78 -45 -86 -98 -118 -136 -168 -182 -184 -185 -173 -138 -110 -108 -70 -61 -36 -18 18 -3 -1 -10 -5 -28 -32 -44 -37 -42 -47 -47 -41 -65 -64 -72 -59 -41 -52 -51 -35 -58 -41 -33 -65 -57 -34 -31 -41 -56 -44 -23 -38 -75 -43 -67 -91 -97 -73 -90 -70 -42 -35 -26 -18 13 32 35 -9 -247 -626 -280 128 23 -15 -6 -1 -29 -30 -15 -31 -24 -5 -21 -45 -65 -68 -80 -106 -91 -90 -116 -131 -124 -107 -85 -36 -40 15 -9 0 18 15 35 30 7 -7 7 27 8 -20 5 -2 -33 36 24 5 -5 8 0 9 -4 11 13 0 -10 -2 12 2 -23 25 -7 -23 23 -5 -47 -58 -61 -88 -22 23 -13 -11 -11 31 50 38 76 -31 -398 -460 36 82 1 59 27 46 2 58 41 28 29 10 19 -6 -44 -42 -54 -85 -88 -99 -103 -103 -88 -84 -72 -18 -13 31 21 12 39 49 13 24 22 26 17 18 13 4 10 22 43 37 40 64 92 83 73 91 94 58 100 76 87 124 113 100 99 109 109 99 88 68 60 20 27 46 68 80 78 105 85 137 123 165 104 -261 -449 -212 96 102 33 133 77 119 90 89 66 89 90 46 48 26 5 -4 -17 -51 -37 -76 -63 -65 -43 -25 -5 48 90 88 75 86 76 81 100 65 65 76 55 59 54 47 40 49 59 24 49 60 33 47 38 51 39 47 38 54 41 38 58 40 65 53 47 58 38 0 -18 1 3 37 47 32 36 41 17 69 53 86 -296 -702 -289 52 -45 24 8 63 26 31 37 44 33 -3 10 -2 -13 -36 -49 -64 -89 -108 -115 -121 -103 -103 -65 -27 -45 -25 -25 28 33 39 42 62 24 58 75 36 31 43 24 22 44 25 32 41 45 53 63 52 61 63 54 80 64 38 55 49 32 66 13 25 47 20 6 -16 -18 -29 -11 16 18 31 4 38 -23 53 -8 -144 -234 -475 -81 18 -115 23 -24 28 -6 11 9 14 -11 -15 -26 -18 -72 -62 -72 -86 -113 -133 -72 -131 -73 -85 -53 -39 -52 -4 8 21 27 54 38 24 34 16 18 29 47 37 22 30 13 24 44 49 18 32 9 0 17 19 24 35 0 7 -16 -23 6 -5 -37 -15 -24 -61 -44 -98 -108 -38 -39 -34 -11 -12 -25 12 -74 20 -166 -492 -28 -28 -127 -2 -48 32 11 4 1 -26 0 -17 -15 -15 -46 -71 -78 -93 -108 -121 -111 -136 -109 -127 -78 -74 -47 -16 -2 52 34 53 59 26 39 27 30 31 36 8 7 10 36 18 13 36 28 27 29 7 34 38 30 30 19 46 12 7 4 -12 0 -15 -7 10 20 62 49 62 40 63 -10 41 -138 -513 1 161 -18 32 -1 56 43 57 50 20 19 29 13 -10 -12 -41 -40 -76 -71 -107 -99 -97 -80 -97 -60 -44 -15 -1 17 26 36 65 48 59 37 26 38 17 30 10 15 15 17 -1 -1 27 20 1 19 11 28 12 0 19 1 -19 -4 -12 -2 -38 -22 23 10 48 22 48 22 63 -20 67 -160 -604 -57 117 -82 63 52 45 3 35 1 19 21 25 20 7 -1 -30 -20 -85 -47 -110 -52 -100 -62 -83 -6 -9 5 27 -18 65 44 58 53 63 57 29 36 49 12 25 10 8 12 36 31 13 27 22 8 40 35 50 35 41 46 36 9 36 -21 -7 -13 -23 -57 -52 5 24 19 47 7 63 -39 100 -65 -459 -159 -180 -70 17 0 74 25 50 16 49 46 47 32 41 3 0 -73 -14 -64 -70 -98 -80 -92 -53 -53 -29 9 29 68 75 49 104 77 79 45 76 77 63 60 54 53 32 55 69 26 59 56 54 59 62 52 52 70 48 65 52 48 65 42 56 60 52 19 26 40 48 4 -23 -7 -8 11 47 45 70 55 100 34 77 35 -118 -360 -478 3 31 -13 43 53 102 54 84 50 59 43 33 48 38 -10 23 -23 -60 -43 -82 -71 -66 -41 -49 4 5 37 64 79 103 72 85 82 102 100 76 88 101 69 88 69 84 84 73 90 86 97 95 74 60 76 79 58 61 51 56 48 63 57 54 80 43 33 58 29 56 46 -16 -2 -31 -11 3 47 41 33 82 7 61 5 93 -53 -582 -446 -18 62 -27 21 50 23 42 15 17 23 7 0 14 -24 -16 -58 -58 -88 -86 -95 -136 -91 -120 -85 -67 -54 -14 -26 10 41 26 11 54 25 8 29 8 38 24 1 21 -16 -4 22 18 12 -1 24 15 0 16 17 5 12 11 27 21 4 17 33 5 13 10 3 10 -4 -4 6 -20 -13 -17 -41 -70 -42 -49 -16 -1 -3 4 -4 12 15 37 27 -66 -556 -549 -27 18 -20 20 19 23 15 22 -17 6 -9 0 -16 -3 -41 -54 -69 -84 -91 -111 -121 -116 -108 -107 -57 -34 3 2 26 33 36 54 53 47 52 38 60 69 36 25 27 52 49 46 53 53 44 37 38 50 42 45 44 41 39 29 49 48 22 63 36 25 38 50 32 2 27 8 -3 -29 
#II[uV]
49380 43099 39472 33551 29653 23642 19779 13586 9920 4064 57 80 79 87 87 74 88 102 78 35 46 47 52 35 57 30 44 25 89 9 -4 428 372 35 -47 -11 65 19 71 68 60 51 62 63 59 32 74 52 99 46 89 66 79 74 68 98 81 10 40 42 -6 -3 37 11 26 5 -9 -16 -5 -56 -19 -18 -30 -35 -13 -17 -37 -11 -14 -39 -4 2 36 37 36 23 -21 -94 -53 -52 -40 -40 -47 -53 -30 23 -72 -91 319 183 -133 -125 -101 -63 -21 -68 -40 -43 -18 -53 -16 -11 13 -17 7 12 40 -22 28 13 79 65 78 33 37 -18 8 -32 22 -53 -13 -3 25 -8 8 -16 0 0 -12 11 -1 0 32 15 26 20 26 -16 -3 -23 14 51 62 62 41 17 -5 -50 -23 -47 -70 -60 -58 -51 -50 -6 -88 -58 156 56 -137 -139 -70 -87 -88 -83 -71 -96 -71 -32 -11 -2 -7 -6 11 6 34 46 76 85 105 54 67 66 51 16 -29 -33 -34 -46 -36 -54 -24 -49 -59 -59 -81 -89 -71 -101 -94 -123 -78 -109 -85 -121 -114 -113 -92 -104 -108 -94 -54 -46 -20 -68 -58 -129 -108 -163 -107 -150 -107 -122 -100 -87 -43 -121 -85 72 23 -188 -154 -85 -106 -137 -87 -83 -70 -82 -74 -58 -79 -99 -54 -77 -6 -29 -25 -39 -13 -20 -34 -22 -20 -29 -32 -73 -58 -102 -89 -112 -91 -96 -79 -87 -91 -111 -102 -108 -106 -119 -84 -108 -110 -120 -111 -92 -101 -109 -87 -109 -92 -92 -86 -64 -53 -39 -38 -51 -52 -89 -64 -83 -76 -87 -73 -77 -80 -75 -51 -70 -84 168 73 -208 -183 -70 -90 -99 -64 -76 -70 -67 -94 -47 -55 -27 -65 2 -14 0 17 6 33 36 63 40 42 9 -5 -14 -29 -40 -43 -77 -39 -51 -80 -69 -63 -88 -76 -119 -84 -125 -97 -121 -109 -133 -115 -103 -121 -119 -103 -148 -134 -170 -134 -145 -121 -100 -89 -136 -137 -143 -114 -133 -135 -131 -120 -118 -100 -98 -127 -45 192 125 -255 -168 -13 -64 -10 -45 1 -12 30 13 3 5 29 22 36 22 69 68 73 70 97 79 98 47 77 -3 25 2 20 4 17 -5 18 -21 11 -21 -2 -25 -17 -41 -28 -50 -3 -57 -1 -46 -18 -58 -16 -34 -24 -28 -11 -26 7 8 36 14 59 -33 16 -2 8 -36 7 -47 24 -41 41 -21 -7 314 140 -145 -79 -58 14 -39 -15 3 4 -25 16 -10 17 -6 26 23 51 18 68 58 71 85 79 61 60 12 25 -16 -10 -43 -27 -33 -37 -21 -1 -11 8 -9 -15 -15 -1 -11 20 -27 -27 -10 1 -8 12 38 -9 34 6 12 21 13 -2 27 38 41 50 63 66 14 -34 -18 -19 -6 -57 -51 -13 -34 -12 35 39 10 117 83 -85 -85 -2 -30 4 -44 -17 10 28 -2 48 15 68 41 74 62 106 104 112 107 128 121 124 87 109 72 80 31 75 27 39 39 93 54 84 72 73 48 80 53 41 44 93 56 98 66 68 55 95 49 81 91 75 62 69 53 77 59 86 87 96 118 74 78 81 40 64 15 56 33 58 18 112 95 40 245 168 -54 -21 23 73 16 39 27 25 43 60 36 70 46 71 24 117 70 124 90 139 86 122 83 107 71 58 15 50 20 34 -30 43 4 3 0 15 5 54 18 18 14 28 5 26 1 38 29 28 -4 34 25 27 10 38 23 30 43 31 26 38 42 68 71 74 16 4 -28 -14 -21 -40 -26 -22 -11 -3 31 50 25 251 196 -70 -77 57 11 0 2 35 22 68 39 58 54 48 52 100 62 129 99 150 123 141 115 140 87 85 66 35 33 56 14 41 38 51 18 40 -1 32 -33 7 -1 18 3 0 -10 4 -23 0 -23 -1 -27 -21 -24 -10 -28 -19 -14 -2 18 -3 -18 29 15 -28 -52 -36 -51 -67 -42 -60 -33 -19 -4 -82 -54 315 214 -185 -172 -84 -41 -45 -37 -6 -14 -5 9 22 21 19 -3 9 12 32 44 64 36 51 47 60 28 16 -13 -5 -32 -37 -51 -28 -32 -47 -81 -78 -47 -45 -54 -29 -79 -63 -72 -32 -70 -61 -66 -47 -41 -54 -54 -70 -69 -47 -77 -24 -35 -38 -20 -25 -67 -57 -112 -69 -116 -81 -96 -96 -109 -58 -83 -115 110 226 -49 -267 -200 -95 -145 -118 -157 -114 -122 -98 -109 -74 -104 -122 -81 -77 -64 -24 -42 -24 -24 29 -11 -20 -47 -66 -93 -129 -107 -112 -110 -103 -125 -77 -122 -143 -109 -133 -136 -104 -123 -148 -113 -123 -135 -124 -147 -129 -144 -139 -153 -165 -180 -176 -142 -139 -145 -110 -84 -87 -109 -57 -74 -112 -119 -98 -151 -176 -130 -112 -127 -100 -74 -142 -34 141 -35 -253 -188 -105 -127 -123 -107 -88 -95 -79 -75 -49 -55 -35 -111 -83 -27 -18 0 0 -33 -7 9 -15 -18 -25 -67 -89 -93 -162 -158 -86 -103 -79 -64 -69 -88 -133 -83 -84 -115 -74 -78 -69 -71 -129 -101 -92 -80 -97 -104 -107 -72 -108 -121 -115 -140 -99 -86 -102 -106 -87 -32 -28 -27 -39 -76 -148 -91 -113 -147 -97 -103 -106 -123 -23 -84 -148 146 10 -227 -160 -159 -111 -89 -126 -66 -39 -62 -89 -68 -12 -42 -14 -28 -68 -3 43 11 25 41 32 58 47 -10 -37 -34 3 -7 -23 -23 -22 -22 3 -24 -100 -35 -6 -39 -46 -40 -39 -67 -51 -49 -106 -72 -106 -85 -64 -80 -68 -56 -70 -109 -48 -60 -101 -43 -19 -34 -30 -19 8 -4 -27 21 29 -24 -41 -43 -6 -86 -62 -79 -15 -46 26 19 -71 82 59 -40 -40 -48 -54 -39 25 14 38 7 18 16 25 38 48 36 58 61 66 49 85 99 88 44 41 92 61 34 -10 17 52 19 19 12 26 -4 -12 -26 6 -17 -11 -32 4 -27 -96 -101 -27 -11 -29 -18 0 -38 -4 -18 -18 -8 0 2 -2 -18 5 5 -10 14 57 43 64 38 11 0 6 -38 -3 20 -33 33 16 27 -18 -52 299 291 24 -83 -35 41 11 19 32 32 65 49 32 87 91 72 94 94 97 156 174 138 178 187 157 208 170 164 127 127 100 85 86 125 121 110 104 115 126 126 106 66 48 67 46 97 93 77 12 62 63 54 55 57 46 32 53 41 -14 12 56 28 31 83 68 54 82 40 -7 0 1 15 13 21 -7 26 -32 14 -1 97 384 202 -118 -41 23 43 10 0 8 54 58 61 22 70 45 44 59 77 51 77 76 82 73 95 52 50 0 39 -5 -29 -53 -36 -31 -28 -73 -48 -34 -34 -44 -32 -47 -23 -43 -22 -18 6 -57 43 23 6 27 42 7 34 21 30 48 48 -2 32 37 45 77 91 86 109 74 1 18 40 29 18 18 32 1 17 65 28 -7 318 230 -54 -69 5 6 42 -11 48 14 40 47 50 44 70 30 53 61 89 86 123 110 121 127 125 72 98 40 91 32 20 16 3 -7 0 0 -3 0 -23 -24 -18 -20 -26 -25 -35 -64 -51 -27 -60 -40 -48 -68 -47 -83 -74 -81 -67 -71 -22 -47 -23 -13 9 6 23 -2 15 -45 -34 -26 -18 -67 -28 -72 -22 -59 23 -18 -91 200 114 -112 -84 -80 -28 -60 -33 -64 -9 -24 11 -25 18 6 30 7 34 22 48 30 42 32 57 20 22 0 5 -43 -65 -43 -66 -64 -40 -46 -54 -31 -6 -42 -47 -46 -55 -63 -37 -40 -19 -33 -33 -12 -6 -7 -11 -11 -5 -20 -10 -50 -22 -34 -33 -20 -52 -17 16 -13 26 10 -20 -61 -41 -71 -49 -96 -69 -90 -80 -61 -24 -152 -7 93 29 -180 -144 -90 -77 -96 -63 -97 -37 -60 -46 -43 -7 -35 0 -18 9 24 27 14 64 46 57 46 45 5 -8 4 1 -47 -3 -19 8 -19 4 -19 4 4 23 -3 6 -21 -28 -37 -6 -19 -19 -28 -45 -66 -45 -55 -14 -21 -37 -47 -56 -71 -6 -32 -19 -18 11 -16 -9 -47 -66 -51 -45 -61 -41 -52 -37 -38 -27 -11 -3 -26 156 215 -86 -104 7 1 4 -25 0 -8 45 11 51 32 43 28 44 42 59 40 73 89 77 85 95 75 74 39 68 44 83 9 77 18 45 17 42 5 35 6 12 -4 45 6 18 14 37 -15 45 -27 35 28 36 33 38 41 49 50 65 63 66 53 35 0 18 21 19 13 23 -10 43 -8 40 139 169 193 -58 -67 40 -13 22 -3 33 13 29 48 46 36 56 36 76 54 84 76 94 111 113 117 107 82 82 53 61 7 38 33 43 27 34 5 39 -5 19 -3 10 2 16 -15 -14 1 -5 -37 -19 -32 8 -33 -28 -27 -14 -23 11 18 7 -60 -37 -55 -56 -65 -38 -62 2 -74 44 -30 22 386 119 -122 -52 -65 7 -48 -34 -24 -10 -2 3 7 28 13 46 3 43 -2 50 38 67 71 54 52 79 27 20 -33 -33 -53 -22 -62 -34 -61 -52 -91 -49 -59 -46 -71 -68 -91 -63 -89 -32 -126 -75 -152 -90 -77 -69 -89 -76 -87 -45 -87 -25 -31 -7 -32 18 -39 -45 -90 -75 -69 -88 -100 -86 -59 -69 2 -19 -88 114 84 -175 -140 -54 -67 -93 -65 -77 -63 4 -38 -6 -33 20 -20 11 26 59 27 67 42 61 79 89 42 58 -8 16 -53 -24 -48 -1 -76 -31 -47 -24 -41 1 -44 -6 -62 2 -33 -34 -46 1 -55 1 -75 -27 -78 -14 -57 -19 -47 -40 -61 -31 -76 -31 -74 -81 -57 -2 -17 16 -34 -32 -96 -60 -88 -67 -86 -51 -45 -55 -62 8 -103 5 78 -26 -159 -102 -73 -16 -27 -23 0 -4 0 13 -10 34 12 -3 40 64 46 87 73 103 95 108 102 90 85 60 35 23 24 15 2 20 21 42 -6 29 15 -16 9 10 9 12 -2 -11 -13 0 -19 -7 -39 6 -12 -15 -40 -70 -43 -31 -30 -24 -57 4 -31 -26 -20 -48 -7 12 -38 25 -54 -70 -83 -78 -95 -88 -80 -60 -90 -56 -24 -100 -78 59 -10 -225 -193 -111 -134 -105 -157 -120 -108 -101 -96 -89 -69 -82 -84 -71 -58 -49 -57 -34 -37 -45 -26 -40 -84 -50 -75 -97 -101 -79 -112 -138 -76 -82 -107 -63 -95 -81 -91 -125 -127 -112 -103 -90 -91 -88 -100 -92 -127 -124 -96 -99 -120 -106 -128 -129 -180 -214 -155 -129 -153 -157 -164 -168 -199 -197 -186 -168 -186 -148 -150 -141 -153 -226 -194 -186 -192 -193 -208 -185 -205 -177 -184 -202 -211 -155 74 -22 -314 -284 -176 -232 -209 -192 -193 -171 -139 -152 -152 -139 -118 -119 -135 -111 -115 -80 -89 -86 -79 -117 -91 -91 -100 -108 -133 -136 -169 -146 -146 -133 -143 -182 -131 -111 -153 -90 -133 -97 -114 -153 -93 -82 -96 -111 -123 -104 -95 -92 -95 -68 -97 -150 -125 -65 -101 -124 -38 -55 -77 -55 -30 -56 -36 18 10 -35 -119 
#III[uV]
58141 51132 46479 39451 34876 27838 23270 16475 11624 4669 31 12 4 25 45 66 91 125 107 61 41 29 42 7 20 -10 0 -16 18 -9 242 961 533 -143 -80 -13 84 12 86 57 64 72 84 98 91 92 133 117 186 144 191 208 221 216 197 203 142 28 79 34 -12 -45 -13 -31 -22 -51 -27 -32 -22 -68 -40 -34 -45 -30 -35 -65 -43 -47 -53 -70 -40 -11 -15 17 43 44 -13 -78 -67 -77 -77 -87 -80 -109 -105 -112 -167 197 796 374 -237 -200 -102 -149 -73 -145 -78 -79 -55 -69 -38 -36 12 -1 52 39 82 78 111 124 159 137 128 64 72 -26 -15 -95 -15 -113 -45 -71 -46 -51 -40 -53 -44 -54 -34 -30 -34 -55 -32 -34 -25 -19 -33 -71 -44 -60 -30 -6 33 46 56 38 8 -20 -50 -80 -67 -90 -79 -106 -83 -67 -24 488 673 177 -167 -107 -19 -109 -75 -103 -52 -88 -57 -25 -13 -3 19 31 42 76 104 125 165 194 184 157 141 81 65 4 -23 -70 -63 -96 -75 -96 -70 -73 -85 -95 -109 -108 -108 -113 -110 -151 -110 -156 -156 -166 -137 -168 -142 -164 -151 -137 -91 -96 -47 -61 -56 -113 -98 -195 -163 -185 -151 -182 -141 -182 -153 -116 344 604 48 -271 -142 -176 -169 -209 -178 -193 -138 -129 -115 -114 -105 -92 -41 -63 15 29 49 70 68 58 46 31 1 -73 -73 -136 -152 -169 -177 -186 -174 -177 -173 -169 -159 -175 -168 -194 -175 -176 -164 -181 -170 -169 -173 -183 -168 -189 -161 -168 -143 -151 -152 -129 -86 -89 -52 -50 -41 -81 -107 -139 -133 -163 -141 -157 -133 -154 -132 -69 187 634 70 -307 -131 -109 -110 -139 -127 -115 -106 -89 -91 -54 -38 11 -14 51 77 95 121 128 172 163 145 104 98 41 22 -56 -51 -100 -101 -119 -111 -120 -128 -114 -101 -138 -115 -157 -145 -169 -137 -148 -144 -159 -140 -159 -140 -167 -143 -177 -150 -188 -150 -148 -98 -83 -58 -82 -107 -130 -136 -172 -152 -166 -150 -161 -100 -137 28 442 209 21 -233 -208 -34 -133 -82 -104 -49 -67 -27 -50 -20 -7 50 24 83 92 110 150 157 175 167 161 140 93 81 12 23 -54 -26 -73 -35 -60 -60 -74 -34 -68 -54 -62 -38 -80 -48 -92 -30 -73 -37 -100 -76 -93 -40 -86 -87 -69 -49 -91 -11 -31 3 24 45 -37 16 -76 -34 -90 -37 -96 -18 -108 58 -100 169 924 180 -224 -1 -105 -28 -93 -42 -74 -32 -56 -7 -35 2 -1 43 31 94 119 132 165 154 193 147 125 102 45 38 -21 -3 -78 -44 -75 -86 -80 -77 -111 -109 -150 -189 -225 -219 -265 -305 -367 -389 -425 -434 -461 -444 -470 -533 -490 -525 -542 -538 -548 -562 -550 -559 -526 -511 -488 -472 -518 -540 -567 -573 -580 -643 -609 -577 -608 -564 -575 -404 36 89 -319 -549 -561 -525 -582 -543 -562 -524 -504 -475 -473 -421 -438 -347 -370 -304 -279 -213 -192 -148 -150 -101 -137 -129 -206 -225 -267 -273 -315 -296 -340 -326 -323 -265 -304 -272 -285 -246 -267 -244 -272 -261 -255 -227 -235 -217 -241 -224 -233 -185 -201 -189 -197 -199 -198 -180 -181 -177 -175 -129 -123 -73 -55 -67 -70 -72 -123 -128 -149 -142 -154 -79 -145 27 -82 187 875 176 -173 1 -89 -17 -90 -58 -64 -34 -41 25 0 32 25 95 42 171 111 168 191 205 214 198 182 164 111 101 44 86 1 55 -7 48 -1 19 3 57 13 79 32 68 34 80 40 88 45 98 71 99 35 85 52 109 79 104 87 117 88 138 84 136 141 198 191 189 191 170 127 112 78 81 60 132 65 175 100 268 631 448 341 108 32 193 90 135 106 188 148 184 156 229 191 245 217 296 271 348 337 384 390 399 373 367 298 319 212 194 156 197 134 177 148 206 144 153 136 176 109 161 132 155 150 159 133 146 124 147 122 144 127 138 118 128 111 140 131 139 171 157 157 207 219 162 149 117 92 93 87 134 88 146 90 173 431 562 469 -43 -62 99 61 92 84 113 104 115 126 149 138 171 137 192 220 244 275 273 286 294 294 259 233 179 129 116 70 70 44 61 31 42 20 13 54 59 38 57 34 51 47 57 27 26 40 43 40 41 23 26 24 44 23 53 62 70 108 120 73 78 10 0 -36 5 -40 5 -81 30 -25 105 752 600 -52 -241 -96 -25 -70 -33 -83 -44 -67 -64 -91 -71 -97 -140 -118 -110 -93 -51 -77 -53 -54 -37 -78 -141 -195 -242 -324 -370 -376 -379 -386 -380 -394 -388 -398 -421 -399 -383 -404 -382 -393 -407 -375 -379 -390 -408 -398 -394 -409 -413 -423 -410 -433 -416 -408 -395 -402 -371 -338 -326 -344 -262 -285 -311 -320 -337 -404 -407 -379 -323 -393 -345 -329 -252 363 500 -114 -452 -352 -310 -307 -282 -284 -263 -243 -225 -228 -186 -178 -143 -191 -151 -69 -35 5 27 11 31 42 -8 -42 -93 -127 -176 -202 -273 -277 -201 -216 -196 -196 -188 -188 -222 -163 -169 -202 -162 -165 -146 -148 -204 -173 -153 -163 -157 -140 -139 -132 -127 -128 -134 -147 -107 -103 -92 -126 -88 -12 5 30 27 -20 -107 -72 -89 -136 -73 -98 -86 -123 -45 -69 247 900 402 -198 -149 -161 -158 -83 -136 -52 -8 -38 -44 -37 39 -12 73 59 47 109 168 178 182 223 193 192 157 73 5 17 10 19 -6 -25 2 0 25 -10 -71 -10 17 -2 12 10 23 12 17 9 -39 -11 -39 -2 2 -8 -11 2 -11 -49 4 -5 -58 0 33 8 24 22 64 57 13 130 143 87 60 45 21 -25 22 -46 14 -28 40 -10 229 857 560 -63 -19 16 -66 -1 36 64 82 82 92 54 103 84 134 135 177 198 235 231 270 284 261 183 151 200 131 95 25 36 34 23 20 23 32 24 20 17 44 24 36 15 45 38 -32 -29 32 29 22 32 35 20 37 15 47 48 34 34 38 38 50 28 28 89 100 110 155 136 85 90 76 4 31 46 -14 19 -16 -8 -9 194 926 572 -103 -107 -19 47 12 48 63 47 96 73 37 108 137 137 162 175 203 247 265 254 309 312 265 293 206 204 111 136 100 67 71 90 91 103 111 107 98 118 126 61 51 100 9 72 88 83 3 61 53 59 43 44 45 42 56 28 -17 36 31 35 55 60 74 101 141 102 81 22 -21 28 25 32 -39 -24 -70 -61 29 495 845 166 -201 -42 -35 16 -35 -2 -49 12 30 31 12 50 52 88 102 132 137 166 175 185 177 184 137 122 18 53 -36 -51 -66 -75 -81 -41 -97 -71 -60 -52 -63 -45 -51 -34 -66 -66 -56 -34 -121 -48 -59 -66 -63 -52 -50 -65 -54 -56 -76 -64 -102 -66 -71 -64 -21 3 18 49 54 -25 -27 -27 -51 -59 -87 -52 -136 -105 -100 -75 254 767 443 -151 -172 -27 -127 -35 -131 -42 -75 -25 -41 -40 -2 21 3 48 66 107 137 160 186 184 193 168 97 104 -8 1 -56 -54 -70 -73 -89 -100 -64 -68 -76 -78 -84 -73 -67 -66 -75 -94 -89 -100 -87 -93 -88 -86 -120 -86 -130 -112 -136 -109 -109 -81 -88 -88 -67 -38 -51 -14 -3 34 -47 -37 -63 -66 -99 -65 -114 -39 -129 -30 -105 205 902 403 -165 -39 -105 -36 -124 -59 -96 -46 -68 -21 -22 7 9 44 43 83 86 138 138 157 153 160 123 88 27 51 -17 -40 -72 -99 -103 -83 -108 -78 -89 -81 -78 -78 -90 -79 -85 -82 -65 -52 -74 -79 -65 -70 -60 -73 -75 -60 -101 -74 -88 -77 -83 -66 -87 -65 -42 -30 -34 20 27 -2 -31 -29 -88 -68 -128 -73 -129 -57 -115 -16 -7 226 569 110 -198 -28 -114 -53 -125 -56 -109 -47 -75 -34 -28 18 -16 72 44 82 111 141 148 136 177 130 132 98 45 44 9 -6 -68 -31 -74 -30 -43 -30 -35 -14 -25 -23 -41 -16 -51 -41 -61 -51 -69 -37 -60 -54 -65 -62 -74 -38 -56 -36 -54 -40 -48 -13 -27 17 -3 36 45 35 50 41 -12 -5 -26 -30 -39 -12 -50 47 -32 163 465 184 243 41 -102 56 -30 -7 -30 0 18 45 29 66 47 89 100 123 135 167 161 184 225 186 213 174 149 121 55 71 -8 48 -44 18 -7 5 -10 11 -25 0 -2 4 -14 9 -12 4 -21 8 -43 15 -35 1 -9 6 2 19 -4 36 42 60 76 66 68 43 -9 -1 -40 -30 -49 -16 -73 53 -49 178 652 168 31 -39 -100 42 -70 -20 -60 -17 -6 9 19 33 46 68 78 117 130 156 183 193 209 194 214 167 127 98 54 43 -19 1 -32 -5 -32 -2 -20 1 -23 -11 -14 -4 -12 0 -14 -13 -26 -26 -38 -38 -44 -19 -46 -27 -47 -15 -3 16 31 9 -21 -15 -78 -67 -114 -60 -111 -20 -138 65 -98 183 990 176 -240 29 -129 -45 -94 -38 -60 -11 -22 -18 -18 7 6 48 34 64 83 97 148 119 172 117 135 85 36 14 -61 -14 -119 -66 -120 -88 -124 -109 -120 -85 -108 -58 -97 -78 -100 -76 -126 -64 -139 -103 -175 -99 -118 -105 -139 -111 -128 -91 -124 -35 -68 14 -24 31 -15 11 -38 -81 -94 -107 -147 -93 -123 -30 -98 46 371 274 264 -105 -157 -54 -142 -119 -115 -94 -113 -42 -86 -39 -74 16 -19 85 41 124 98 165 122 153 132 143 71 49 -38 -52 -128 -74 -152 -78 -155 -77 -124 -102 -104 -58 -99 -59 -95 -52 -102 -60 -106 -55 -109 -57 -137 -79 -130 -84 -105 -85 -100 -89 -127 -74 -133 -92 -127 -101 -83 -42 -66 12 -10 -24 -87 -72 -135 -113 -157 -106 -145 -89 -140 -27 15 365 557 -29 -191 -89 -116 -69 -129 -77 -85 -55 -58 -30 -44 -14 -25 7 17 87 107 131 155 175 162 149 151 85 80 23 -28 -55 -79 -57 -82 -62 -80 -57 -82 -58 -85 -85 -78 -59 -75 -72 -76 -101 -100 -97 -115 -81 -99 -69 -92 -74 -101 -122 -99 -79 -93 -82 -111 -75 -74 -60 -79 -77 -63 -33 -22 27 -23 -58 -86 -125 -137 -122 -162 -68 -152 -62 -118 -46 504 506 8 -287 -166 -132 -184 -128 -199 -135 -126 -124 -104 -89 -84 -57 -67 -12 0 39 28 60 99 45 94 44 -17 4 -60 -70 -111 -121 -139 -150 -131 -108 -116 -92 -104 -119 -115 -126 -149 -95 -99 -112 -109 -101 -98 -117 -143 -123 -112 -116 -126 -119 -139 -156 -201 -218 -172 -162 -158 -170 -175 -172 -210 -193 -182 -174 -165 -135 -132 -100 -82 -183 -145 -169 -190 -190 -213 -180 -217 -193 -222 -229 -144 401 624 5 -332 -264 -196 -252 -233 -207 -215 -154 -145 -142 -151 -123 -114 -78 -81 -42 -30 10 21 35 37 -8 15 -34 -66 -112 -135 -163 -203 -182 -201 -187 -190 -234 -170 -172 -222 -126 -159 -125 -166 -202 -139 -135 -150 -155 -160 -143 -146 -134 -141 -112 -139 -189 -155 -115 -150 -146 -101 -91 -102 -93 -81 -89 -39 -8 2 -31 -89 
#avR[uV]
-20309 -17533 -16233 -13825 -12215 -9723 -8143 -5349 -4107 -1729 -42 -73 -77 -75 -64 -41 -42 -39 -25 -4 -25 -32 -30 -31 -47 -35 -44 -34 -80 -14 126 52 -105 -107 7 5 -23 -13 -28 -39 -28 -15 -20 -14 -14 13 -7 5 -5 25 6 38 30 33 30 2 -10 4 0 -24 0 -19 -44 -27 -37 -31 -4 0 -5 21 0 0 7 20 -3 -15 15 -11 -12 3 -15 -8 -44 -28 -14 0 14 55 19 13 1 -3 7 -1 -22 -79 -11 189 78 3 14 25 50 -10 -15 -4 1 3 -9 18 -2 -6 -7 17 18 7 0 61 27 48 0 3 -14 0 -1 4 -16 -15 -30 -3 -9 -32 -48 -17 -28 -10 -22 -26 -5 -26 -15 -27 -48 -32 -39 -30 -43 -19 -19 -7 -30 -54 -46 -39 -13 2 9 40 -1 7 36 14 18 -2 8 -27 76 302 180 32 54 85 60 32 50 31 45 52 42 19 5 0 17 22 9 31 18 16 6 11 -13 24 3 -26 -18 -14 17 -1 2 -1 -1 5 -11 12 16 12 26 34 17 44 38 48 22 30 6 38 46 29 21 22 32 26 8 -1 -2 37 29 72 59 66 25 58 31 31 29 -3 -33 63 257 230 0 53 82 -2 21 32 -2 -13 0 17 16 0 26 53 34 45 14 44 50 74 48 50 57 38 21 -7 -4 4 -17 17 1 18 4 8 -7 3 11 23 18 11 18 30 2 17 25 35 24 0 16 14 7 24 20 16 10 0 10 -4 12 26 32 48 11 13 10 5 2 0 14 -1 -14 35 177 149 -38 54 117 15 35 30 0 18 17 22 48 20 35 32 58 23 52 47 43 58 52 45 9 11 7 11 16 -13 3 -9 -7 17 -15 -8 16 12 12 19 19 40 11 40 29 46 37 53 45 23 51 35 31 59 58 76 59 71 72 58 60 95 83 78 46 47 59 48 45 37 49 29 141 266 -87 -114 138 63 -3 -2 -30 -6 -26 -21 -44 -38 -13 -8 -4 -10 5 23 -14 6 4 16 -14 1 -28 0 -37 9 -13 -29 -33 -40 -35 -24 -48 -16 -29 -12 -24 -5 -1 1 4 4 -11 21 -16 -4 -19 12 -3 -8 -19 -6 -13 -18 -13 -23 -34 -2 -37 14 -8 -35 -25 -8 -26 0 -33 -13 -11 -28 92 147 -50 33 78 5 -29 -7 -5 -40 -21 -2 -20 -7 -15 6 -4 -7 -4 41 -1 24 5 11 -5 0 -9 9 -5 5 8 4 4 -3 -5 -18 -37 -44 -63 -65 -79 -97 -108 -121 -173 -156 -167 -201 -218 -221 -234 -274 -257 -279 -269 -283 -290 -287 -279 -302 -318 -304 -305 -307 -302 -273 -235 -265 -267 -284 -264 -253 -275 -269 -270 -323 -241 7 -72 -243 -189 -195 -260 -260 -276 -236 -244 -262 -266 -234 -258 -234 -242 -226 -226 -201 -213 -201 -186 -182 -179 -190 -189 -190 -222 -206 -216 -189 -223 -197 -203 -201 -226 -206 -220 -214 -196 -182 -202 -189 -172 -172 -206 -173 -206 -187 -181 -172 -188 -150 -176 -190 -175 -161 -159 -144 -166 -147 -150 -149 -133 -146 -108 -113 -118 -102 -129 -89 -127 -110 -98 -90 -98 -136 53 191 -80 -32 22 -67 -82 -61 -68 -59 -42 -64 -48 -37 -54 -33 -23 -3 -31 -14 -40 4 -37 20 -23 7 -25 -15 -7 6 -6 -19 -6 26 -19 -5 6 2 12 1 -15 -1 16 2 11 14 18 21 10 6 21 22 7 0 27 29 13 20 28 1 37 15 29 27 30 24 20 79 80 91 70 60 81 56 89 44 91 18 83 290 -27 -25 124 94 38 33 67 50 58 51 23 38 56 41 73 56 47 73 45 68 41 71 58 71 43 62 73 40 62 45 41 52 47 36 51 53 36 69 55 87 73 67 58 71 80 76 68 85 73 84 73 91 90 83 74 83 89 80 71 67 82 96 74 94 109 127 95 97 113 86 128 78 92 49 169 270 -34 20 163 141 133 72 92 79 63 66 62 53 52 47 66 72 87 97 89 93 72 107 95 99 69 88 73 78 63 67 72 73 59 48 69 91 85 74 75 73 58 96 89 96 61 84 74 86 69 62 75 66 83 81 69 89 51 66 73 74 85 104 97 118 70 97 84 76 99 69 74 70 168 265 73 23 147 152 82 110 102 116 92 89 66 63 38 55 52 22 21 17 -1 3 -2 -2 -48 -27 -50 -50 -54 -68 -55 -80 -77 -82 -86 -71 -116 -76 -66 -90 -58 -65 -87 -73 -55 -74 -65 -60 -79 -51 -68 -60 -67 -57 -39 -36 -32 -61 -58 -55 -74 -85 -75 -62 -73 -68 -42 -40 -70 -50 -26 -59 -49 -69 -72 -90 16 216 108 -22 26 12 -49 -26 -18 -34 -42 -25 -33 -38 -44 -33 -36 16 7 -6 0 2 12 39 23 11 11 -2 -21 3 1 -7 25 19 -14 -5 -19 -33 -24 -5 22 1 0 13 -6 -4 -3 -2 26 14 15 -1 18 33 38 5 44 57 48 66 46 34 56 43 43 26 31 43 53 66 94 55 68 79 61 54 62 61 0 49 272 304 190 128 86 78 31 47 58 40 35 43 67 49 32 36 50 58 92 58 40 77 65 70 64 37 31 46 40 42 1 16 20 11 24 23 9 19 64 30 14 38 53 45 51 73 60 54 86 66 86 84 65 76 62 57 64 84 51 58 72 43 35 39 42 30 23 33 34 43 41 67 71 65 17 73 73 55 22 32 -6 -25 186 345 220 9 30 56 20 38 -7 17 2 33 27 10 26 3 18 31 29 37 51 66 49 42 42 46 34 8 4 13 23 0 -35 -7 -8 0 -10 16 22 35 15 29 29 39 18 46 80 86 43 26 40 35 17 48 23 26 41 33 17 14 22 37 19 9 24 30 -7 12 13 29 30 44 31 40 19 3 26 -23 -24 -31 14 150 163 -5 -76 29 25 -17 -4 5 0 -8 -16 -12 -13 -33 -23 -3 -13 -6 4 -32 -42 -10 -23 -31 -24 -61 -67 -61 -71 -58 -49 -52 -51 -80 -75 -59 -48 -61 -76 -67 -43 -35 -23 -17 -41 -61 -49 -35 -10 -31 -36 -24 -33 -35 -23 -10 -25 -27 6 5 -40 -10 -3 -53 -31 -3 -11 10 47 11 -12 0 0 -5 -12 -38 -3 -45 16 150 38 -119 17 19 -41 -35 -28 -1 -33 -47 -43 -45 -16 -44 -19 0 -8 -11 17 5 11 10 15 -3 15 10 9 -13 -13 4 20 -1 -8 7 24 12 3 8 13 9 21 6 10 -10 -9 -23 -3 -68 -53 -39 -59 -68 -33 -67 -49 -59 -86 -81 -48 -66 -73 -77 -88 -89 -77 -84 -47 -14 -32 -54 -55 -48 -62 -59 -69 -70 -115 -66 134 65 -9 -21 -16 -19 -70 -60 -54 -69 -51 -53 -68 -70 -45 -59 -28 -29 -28 -35 -17 -43 -16 -29 -31 -41 -23 -46 -44 -91 -60 -47 -51 -39 -36 -50 -33 -31 -38 -15 -17 -17 -13 -7 -12 -11 19 1 -16 13 -3 5 8 3 17 17 13 13 16 -17 3 -21 -19 -28 -32 -31 0 1 22 15 -5 -14 17 -3 15 2 -4 -38 -33 193 250 87 30 64 28 10 -1 3 16 -13 -9 -22 14 -14 -2 -8 14 7 21 20 39 36 44 22 41 21 13 19 34 45 7 16 12 -1 -8 14 -13 -34 3 8 1 15 20 -3 7 -6 -4 -5 -20 -28 -22 -24 -26 -24 -30 -26 6 -16 -7 0 -23 19 -4 -31 -3 -16 2 19 45 26 27 15 32 32 25 51 3 16 148 121 191 25 81 130 33 50 33 34 42 13 22 29 29 16 26 36 40 31 30 43 59 4 42 8 19 4 16 30 0 -4 13 -11 -17 -23 -2 -19 1 -11 -17 -35 -17 -14 -4 7 6 -19 -15 0 -1 17 33 13 18 -4 -7 19 20 36 47 0 19 28 17 6 38 27 73 87 45 42 48 26 32 31 12 50 -4 84 259 -64 -93 107 53 20 -16 -7 10 -1 17 -23 3 -18 -8 1 21 17 25 24 40 18 23 16 20 -8 0 -13 -11 -33 -48 -58 -31 -68 -22 -42 -22 -36 -18 -36 -7 -9 -3 -40 -12 -15 -25 -32 -6 -37 10 -35 -33 -33 -32 -29 -44 -30 -28 -34 -25 -33 -18 -14 -5 -19 -41 -34 -38 -31 -26 -16 -16 48 186 -85 -177 38 17 -19 -21 -33 -27 -42 -17 -24 -39 -30 -12 -22 2 -18 10 -6 15 2 -6 -16 -9 -23 -18 -33 -26 -39 -16 -37 -49 -45 -43 -35 -15 -39 -6 -25 -3 -12 -9 -17 8 7 -14 -7 17 0 10 -18 10 14 3 6 21 -3 -2 -2 49 30 16 22 8 8 6 -12 5 -11 -18 69 108 -30 2 67 1 -30 1 15 -5 4 -8 -12 -16 -24 -10 -22 13 -11 44 -1 36 -7 14 3 15 -36 -9 -12 3 26 -5 -11 2 -9 0 -2 31 6 5 17 22 28 41 25 26 0 56 23 65 40 18 16 19 20 22 0 25 8 -2 14 19 -2 31 51 71 35 22 34 26 39 -1 54 -51 42 273 22 47 122 61 27 -3 33 7 30 6 -25 -4 -12 -4 -11 10 31 -6 2 21 15 18 15 -12 -17 -6 -34 -10 -42 -11 -12 -27 -37 -1 -6 -14 -26 -10 -31 -4 -23 14 -29 -17 3 -6 -28 0 -30 6 -12 13 -28 4 -22 -2 -4 -1 -5 10 -14 10 31 15 -18 -15 -10 28 20 52 24 20 11 8 -1 -27 10 -7 -22 110 177 200 11 64 58 15 -18 -37 -15 -42 -22 -29 -28 -11 -41 -25 6 -31 -20 6 -21 4 -15 -14 -33 -26 -47 -45 -49 -49 -51 -64 -44 -43 -51 -61 -71 -34 -59 -58 -26 -49 -39 -47 -48 -35 -39 -36 -48 -37 -33 -10 -41 -33 -21 -10 9 -6 -8 -16 -16 1 -42 -6 -3 -18 9 -24 -29 27 -11 42 40 39 15 27 27 -1 26 14 25 -34 76 330 193 14 81 110 45 41 41 57 52 45 38 44 45 27 53 50 65 58 68 72 64 86 68 73 62 76 52 44 62 45 19 42 63 10 28 49 16 43 21 33 61 52 64 53 33 36 38 50 33 56 62 39 40 57 47 58 50 79 104 69 47 74 72 77 82 94 100 95 80 103 81 83 91 112 134 122 101 97 98 101 94 96 80 73 87 139 355 237 25 147 152 78 106 92 88 85 94 66 80 76 78 61 80 94 90 100 85 100 104 98 112 99 74 67 52 65 54 68 54 45 39 48 65 46 25 42 26 53 35 30 51 23 14 21 33 42 33 22 25 25 11 28 55 47 8 26 50 -12 9 26 8 -10 11 17 -22 -9 19 74 
#avL[uV]
-33450 -29582 -26742 -22676 -20049 -16017 -13381 -9681 -6664 -2637 -2 27 35 18 -2 -28 -47 -73 -67 -44 -18 -5 -16 10 7 25 22 29 26 14 -245 -747 -347 161 56 7 -51 -2 -50 -22 -34 -46 -53 -66 -61 -76 -95 -90 -137 -120 -147 -175 -181 -179 -163 -154 -101 -23 -59 -13 9 44 32 37 35 54 22 24 19 40 30 25 30 12 28 57 25 41 46 51 37 12 33 0 -25 -33 2 31 41 50 57 67 56 83 90 123 131 -243 -636 -282 170 137 51 117 62 111 57 57 46 43 30 30 -6 -7 -48 -33 -61 -89 -97 -117 -119 -104 -89 -48 -53 17 19 79 26 87 38 69 58 47 44 45 44 53 28 36 33 55 49 42 39 30 47 63 42 49 37 31 -2 -14 -36 -30 -11 -5 38 56 32 60 50 80 58 64 -20 -517 -595 -149 98 37 -16 65 31 61 16 39 21 9 7 2 -22 -34 -36 -73 -87 -102 -127 -151 -131 -130 -107 -47 -40 3 8 53 46 73 56 69 58 48 56 65 68 64 72 63 63 89 71 101 113 105 79 111 95 112 96 89 63 73 37 27 27 49 44 113 109 109 97 121 90 139 131 55 -387 -568 -36 177 65 134 116 141 135 152 103 88 78 85 65 42 13 24 -18 -44 -62 -89 -75 -69 -63 -42 -12 58 57 100 123 118 132 130 128 129 134 125 113 119 117 139 122 117 121 127 114 109 117 137 118 134 117 113 97 104 109 97 59 69 33 24 15 36 74 97 94 119 104 118 93 116 107 34 -229 -550 -33 202 40 74 65 89 95 77 71 56 44 30 11 -25 -18 -49 -84 -95 -112 -125 -155 -145 -113 -83 -77 -36 -25 48 37 80 79 80 91 94 88 79 69 93 76 97 103 106 88 88 90 93 82 107 80 107 92 103 83 103 82 75 37 32 13 14 38 58 79 105 84 100 90 102 50 88 -92 -464 -113 41 105 124 27 100 76 81 50 60 43 57 22 9 -35 -12 -65 -81 -75 -116 -120 -140 -118 -122 -91 -69 -42 -13 -10 55 36 75 44 57 69 63 40 58 52 49 29 59 34 66 28 44 36 77 66 64 32 69 75 55 44 78 15 35 14 -17 -15 20 -8 75 38 71 41 72 30 88 -38 89 -173 -767 -109 151 -38 76 36 73 34 76 35 43 15 30 5 -1 -29 -20 -69 -109 -98 -136 -118 -151 -108 -94 -72 -38 -25 13 -1 56 30 58 67 69 76 105 113 146 181 217 219 260 315 353 375 420 435 457 450 490 529 507 528 548 549 555 561 564 578 547 536 519 505 525 523 558 563 577 614 583 571 590 558 593 424 -30 -30 361 506 518 524 566 545 539 515 509 490 471 445 445 382 390 341 310 266 245 204 204 166 198 191 249 280 303 313 331 333 354 346 343 312 331 314 321 283 291 285 298 282 278 274 263 266 274 259 261 233 226 230 243 236 229 215 208 216 204 172 166 121 115 105 109 113 144 160 157 170 171 108 154 28 130 -167 -752 -91 145 -12 101 54 98 78 78 47 62 5 19 2 -2 -59 -29 -112 -76 -106 -146 -135 -171 -137 -140 -110 -75 -72 -36 -61 8 -38 -7 -26 3 -18 -3 -49 -10 -51 -23 -59 -26 -65 -37 -75 -44 -79 -57 -84 -37 -67 -39 -96 -74 -85 -76 -102 -67 -122 -71 -116 -120 -164 -156 -152 -183 -167 -141 -119 -88 -102 -73 -144 -71 -177 -84 -243 -618 -322 -243 -143 -71 -164 -85 -135 -105 -170 -136 -149 -136 -200 -164 -220 -191 -246 -240 -284 -287 -309 -328 -328 -316 -297 -255 -276 -179 -177 -140 -168 -127 -157 -129 -180 -135 -132 -137 -160 -125 -157 -132 -145 -148 -159 -138 -143 -136 -147 -134 -145 -141 -149 -130 -133 -125 -149 -138 -140 -162 -159 -166 -193 -211 -176 -176 -136 -117 -126 -109 -164 -105 -156 -92 -214 -458 -405 -362 -49 -23 -141 -82 -115 -103 -117 -111 -117 -121 -138 -127 -161 -139 -188 -213 -228 -252 -241 -268 -268 -270 -229 -219 -171 -136 -119 -86 -89 -70 -76 -48 -66 -60 -52 -78 -81 -66 -71 -74 -83 -83 -73 -62 -56 -73 -67 -61 -68 -51 -61 -59 -67 -62 -66 -79 -90 -118 -133 -107 -107 -67 -35 -21 -45 -8 -54 26 -60 -16 -163 -697 -487 27 107 -4 -22 -2 -26 4 -12 5 15 36 34 45 79 77 72 60 39 56 41 42 52 72 131 172 208 277 305 322 323 331 328 331 349 337 349 344 316 335 330 331 333 318 317 323 346 324 330 337 344 346 327 343 328 337 325 329 315 296 282 289 233 248 254 260 288 328 318 314 267 330 295 292 180 -380 -430 97 325 257 257 244 221 230 218 195 186 190 162 150 125 135 109 55 25 -5 -27 -28 -35 -37 0 33 80 94 132 155 192 197 158 165 156 164 153 144 156 121 127 144 125 126 111 112 140 122 107 123 109 88 85 96 73 67 76 77 57 60 40 73 44 -4 -19 -44 -47 -17 33 26 33 62 24 47 33 61 33 26 -321 -827 -396 84 69 81 103 38 73 19 -10 6 0 3 -45 -8 -80 -73 -81 -111 -146 -172 -170 -202 -177 -162 -134 -78 -24 -34 -8 -22 -5 13 -13 -11 -24 -1 21 -6 -20 -17 -36 -31 -43 -46 -43 -34 -13 -24 -13 -40 -34 -31 -23 -30 -24 -5 -29 -25 8 -20 -42 -26 -39 -32 -60 -59 -27 -119 -128 -99 -81 -66 -24 -17 -53 6 -22 4 -27 20 -265 -816 -530 42 0 -40 39 -18 -23 -56 -63 -78 -82 -45 -90 -65 -110 -117 -147 -167 -201 -207 -227 -235 -217 -161 -130 -154 -100 -78 -30 -27 -8 -13 -11 -17 -18 -26 -26 -31 -40 -33 -42 -31 -43 -51 -15 -21 -45 -35 -37 -42 -35 -39 -39 -24 -56 -52 -34 -33 -40 -47 -47 -26 -33 -82 -71 -89 -123 -117 -79 -90 -73 -23 -33 -36 -1 -2 24 21 0 -221 -776 -426 115 65 2 -26 -7 -38 -46 -31 -64 -48 -21 -64 -91 -101 -115 -127 -155 -169 -177 -185 -220 -218 -186 -189 -121 -122 -48 -72 -50 -24 -27 -27 -30 -48 -59 -49 -35 -54 -73 -28 -27 -66 13 -23 -41 -44 2 -30 -22 -31 -16 -15 -22 -26 -29 -7 9 -29 -3 -21 -39 -18 -39 -74 -100 -82 -84 -22 22 -21 -18 -22 35 37 54 69 -30 -446 -653 -64 142 22 47 5 41 2 54 14 0 0 0 -15 -29 -66 -72 -93 -111 -127 -137 -144 -140 -136 -110 -97 -18 -33 33 36 39 57 65 27 60 46 43 35 41 29 28 22 44 55 46 37 93 70 71 69 77 73 54 83 65 72 100 89 101 83 90 87 60 42 24 5 -16 26 36 47 66 68 96 68 137 114 133 90 -257 -608 -327 124 137 30 130 56 125 66 82 45 65 65 24 13 11 -21 -35 -62 -94 -98 -131 -123 -129 -105 -61 -54 28 44 72 64 78 74 85 100 65 67 76 66 72 63 57 53 62 76 56 74 73 63 67 62 85 63 88 75 95 75 74 69 64 76 60 42 55 26 2 -26 24 20 50 57 66 51 78 28 99 41 95 -250 -802 -346 108 -2 64 22 93 43 64 41 56 27 9 1 -5 -28 -39 -66 -75 -114 -123 -136 -137 -131 -113 -76 -27 -48 -4 7 50 66 71 63 85 51 74 78 57 55 67 51 54 63 45 42 57 62 59 66 56 67 69 57 91 69 63 66 66 49 76 39 34 38 27 -7 -21 -8 0 9 52 43 79 38 84 17 84 3 -68 -230 -522 -95 108 -43 68 14 77 25 60 28 44 11 6 -22 0 -72 -53 -77 -98 -127 -140 -104 -154 -101 -109 -76 -42 -48 -7 7 44 29 64 34 33 32 25 16 27 35 39 19 40 27 42 48 59 27 46 31 32 40 47 31 46 17 30 12 12 10 11 -27 -5 -30 -53 -39 -74 -75 -12 -17 -4 9 13 -6 31 -60 26 -165 -479 -106 -135 -84 49 -52 31 9 17 0 -22 -22 -23 -40 -31 -68 -86 -100 -114 -138 -141 -148 -180 -147 -170 -126 -111 -84 -36 -36 30 -6 49 20 16 16 19 9 28 18 5 1 12 13 15 4 28 9 35 6 21 16 24 12 14 0 25 -12 -17 -28 -44 -32 -42 -25 9 10 51 39 56 28 68 -31 45 -158 -582 -83 65 10 66 -21 63 32 58 34 13 4 5 -10 -28 -40 -60 -79 -103 -114 -145 -146 -153 -137 -156 -113 -86 -57 -28 -13 22 17 48 27 46 19 23 18 20 21 12 9 13 9 6 6 27 23 20 28 28 24 29 13 33 8 -8 -10 -21 -5 -8 -3 51 39 81 41 80 21 101 -42 83 -172 -797 -117 179 -55 96 49 70 20 47 6 20 20 21 6 0 -24 -32 -42 -84 -72 -129 -86 -136 -90 -109 -46 -22 -4 44 -2 92 55 89 70 93 83 74 61 79 35 61 44 54 44 81 48 76 65 99 54 79 70 95 73 84 68 80 22 52 -18 8 -22 -3 -34 -7 43 59 63 97 50 93 -4 99 -56 -415 -217 -222 17 87 26 108 72 82 55 81 44 66 35 58 -6 9 -79 -27 -94 -84 -131 -101 -123 -93 -98 -50 -19 34 60 101 61 128 77 117 61 100 89 84 59 76 56 64 54 86 43 83 55 82 58 99 66 91 77 76 75 76 69 96 58 95 76 89 60 54 41 57 -4 -6 8 39 42 91 79 113 81 122 61 108 31 -67 -362 -518 16 111 37 79 61 115 66 84 52 58 36 38 31 31 -8 2 -55 -83 -87 -119 -123 -114 -95 -100 -40 -37 7 46 67 91 65 83 72 91 78 79 73 93 77 83 64 80 78 75 96 93 97 105 78 79 73 86 66 81 87 77 64 78 69 83 78 58 46 68 53 59 40 3 -15 -3 23 45 86 89 77 122 37 107 34 106 -3 -543 -476 -13 174 69 76 117 76 120 75 71 74 55 44 49 16 25 -22 -28 -64 -57 -78 -117 -68 -107 -65 -25 -29 23 22 61 81 83 80 93 66 62 61 56 78 70 63 85 39 47 67 63 56 48 70 79 61 64 67 66 65 75 92 111 111 95 97 81 91 92 87 110 94 88 90 72 60 57 29 6 70 48 76 94 93 109 88 115 104 129 128 38 -478 -587 -16 175 121 108 136 128 111 118 68 76 66 75 53 55 18 13 -13 -27 -51 -66 -78 -76 -49 -61 -11 16 57 69 95 118 109 128 120 118 143 104 116 145 81 92 76 109 126 93 94 101 100 99 90 98 88 93 78 90 114 92 82 99 84 82 64 63 66 66 61 21 17 3 14 29 
#avF[uV]
53760 47115 42975 36501 32264 25740 21524 15030 10772 4366 44 46 42 56 66 70 90 113 92 48 43 38 47 21 39 9 21 4 54 0 119 695 452 -54 -64 -12 74 15 78 62 62 62 73 81 75 62 103 84 143 95 140 137 150 145 133 151 111 19 59 38 -9 -24 11 -9 2 -23 -18 -24 -13 -62 -29 -26 -37 -33 -24 -41 -40 -29 -33 -55 -22 -4 10 27 40 34 -17 -86 -60 -64 -59 -63 -63 -81 -68 -44 -119 53 557 278 -185 -163 -102 -106 -47 -106 -59 -61 -37 -61 -27 -24 13 -9 29 25 61 27 70 69 119 101 103 49 55 -22 -3 -64 3 -83 -29 -37 -10 -29 -16 -34 -21 -27 -23 -9 -17 -27 0 -9 0 0 -3 -43 -23 -41 -7 22 48 54 49 27 1 -35 -36 -64 -69 -75 -69 -78 -66 -36 -56 214 414 117 -152 -123 -44 -98 -82 -93 -62 -92 -64 -28 -12 -2 5 12 27 41 69 86 120 139 144 106 104 73 58 10 -26 -51 -49 -71 -55 -75 -47 -61 -72 -77 -95 -98 -90 -107 -102 -137 -94 -132 -120 -144 -126 -141 -117 -134 -129 -116 -72 -71 -34 -64 -57 -121 -103 -179 -135 -168 -129 -152 -120 -135 -98 -119 129 338 36 -230 -148 -131 -137 -173 -133 -138 -104 -106 -95 -86 -92 -95 -48 -70 4 0 11 15 27 19 5 4 -9 -51 -52 -104 -105 -136 -133 -149 -133 -137 -126 -128 -125 -143 -135 -151 -141 -147 -124 -145 -140 -145 -142 -137 -135 -149 -124 -138 -117 -121 -119 -97 -69 -64 -45 -50 -47 -85 -86 -111 -105 -125 -107 -117 -107 -115 -92 -70 51 401 71 -257 -157 -89 -100 -119 -96 -96 -88 -78 -93 -50 -47 -7 -40 26 31 48 69 67 103 99 104 72 70 25 8 -35 -40 -70 -72 -98 -75 -85 -104 -91 -82 -113 -95 -138 -115 -147 -117 -135 -127 -146 -127 -131 -131 -143 -123 -162 -142 -179 -142 -146 -109 -91 -74 -109 -122 -136 -125 -153 -143 -148 -135 -140 -100 -118 -49 198 201 73 -244 -188 -23 -98 -46 -75 -24 -39 1 -18 -8 0 39 23 60 57 89 109 115 123 132 120 119 70 79 4 24 -25 -3 -34 -8 -33 -20 -47 -11 -45 -28 -43 -27 -61 -38 -71 -16 -65 -19 -73 -47 -76 -28 -60 -56 -48 -30 -59 -1 -11 19 19 52 -35 16 -39 -12 -63 -15 -71 3 -74 49 -61 80 619 160 -184 -40 -82 -6 -66 -29 -35 -14 -40 4 -23 9 -4 34 27 73 68 100 112 113 139 113 93 81 28 31 -19 -6 -61 -35 -54 -61 -50 -39 -61 -50 -80 -102 -120 -110 -138 -142 -197 -208 -218 -216 -235 -216 -216 -271 -228 -259 -265 -258 -267 -282 -261 -260 -242 -230 -212 -202 -252 -287 -292 -296 -293 -350 -330 -295 -321 -288 -270 -182 23 103 -117 -317 -323 -264 -306 -269 -303 -271 -247 -223 -237 -186 -211 -139 -164 -115 -108 -53 -44 -18 -21 13 -8 -2 -59 -57 -97 -96 -141 -110 -156 -143 -141 -85 -124 -93 -106 -86 -109 -82 -109 -109 -105 -67 -89 -59 -87 -77 -89 -44 -75 -54 -53 -61 -68 -55 -63 -49 -57 -21 -17 11 31 3 4 4 -41 -31 -67 -43 -60 -10 -63 70 6 113 560 172 -113 -9 -33 28 -37 -9 -18 -4 1 43 17 51 35 83 33 144 91 146 141 172 150 160 132 136 91 80 30 68 11 45 -19 46 1 11 1 36 9 66 25 43 24 54 23 57 23 68 50 63 15 60 39 68 44 71 55 73 66 85 55 87 92 133 131 132 103 87 49 48 28 20 16 54 26 85 66 159 328 350 268 18 -22 125 51 68 54 111 85 126 98 144 122 147 134 198 167 238 218 267 256 270 244 254 192 202 139 114 95 127 74 109 93 129 81 96 67 104 38 84 65 86 76 79 61 75 50 73 49 71 49 58 47 59 41 60 58 68 95 76 69 118 117 66 48 40 20 12 22 36 27 63 43 45 188 439 342 -114 -117 7 10 23 23 53 45 55 68 86 79 95 66 101 116 138 159 169 161 173 170 159 131 98 57 55 19 16 -3 16 0 -2 -30 -32 3 6 -7 13 -22 -6 -12 12 -21 -17 -12 -1 0 -6 -15 -21 -22 -1 -27 14 13 16 43 47 3 10 -50 -34 -76 -38 -68 -45 -95 -13 -54 -4 431 413 -51 -254 -148 -60 -107 -75 -120 -79 -95 -81 -100 -72 -100 -131 -99 -93 -78 -37 -59 -39 -39 -4 -44 -80 -121 -154 -208 -250 -241 -245 -248 -242 -260 -232 -260 -282 -254 -258 -270 -243 -258 -278 -244 -251 -263 -266 -272 -261 -276 -276 -288 -288 -307 -296 -275 -267 -273 -241 -211 -207 -227 -160 -179 -212 -220 -218 -278 -291 -254 -218 -260 -222 -202 -197 164 321 -74 -352 -270 -208 -217 -202 -195 -176 -169 -152 -152 -117 -116 -89 -151 -117 -48 -26 2 14 -10 12 25 -12 -30 -59 -97 -133 -147 -218 -217 -143 -159 -137 -130 -129 -138 -178 -123 -126 -158 -118 -121 -108 -110 -167 -137 -122 -122 -127 -122 -123 -102 -117 -125 -125 -143 -103 -95 -97 -116 -88 -22 -11 1 -6 -48 -127 -81 -101 -142 -85 -101 -96 -123 -34 -76 49 523 206 -213 -155 -160 -135 -86 -131 -59 -24 -50 -67 -52 13 -27 29 15 -10 53 105 95 104 132 113 125 102 31 -16 -8 7 6 -14 -24 -10 -11 14 -17 -86 -23 5 -20 -17 -14 -7 -27 -16 -20 -72 -42 -73 -43 -30 -44 -39 -27 -40 -79 -22 -33 -80 -22 7 -12 -2 1 36 26 -7 75 86 31 9 0 7 -55 -19 -62 0 -37 33 4 78 470 310 -52 -30 -16 -60 -20 31 39 60 45 55 35 64 61 91 86 117 129 150 140 178 192 175 114 96 146 96 64 7 27 43 21 19 17 29 10 4 -4 25 3 12 -8 25 5 -64 -65 2 8 -3 7 17 -9 16 -1 14 19 17 18 17 10 27 17 8 51 78 76 110 87 48 45 41 -17 13 33 -24 26 0 9 -13 71 612 431 -39 -95 -27 44 12 33 47 40 81 61 35 98 114 104 128 134 150 201 220 196 244 249 211 251 188 184 119 131 100 76 78 108 106 107 107 111 112 122 116 63 50 84 28 84 90 80 8 61 58 56 49 50 45 37 55 34 -15 24 43 31 43 72 71 78 111 71 36 11 -9 22 19 27 -23 0 -51 -23 13 296 615 184 -159 -42 -5 29 -12 -1 -20 33 44 46 17 60 48 66 80 104 94 121 125 134 125 139 94 86 9 46 -20 -40 -60 -56 -56 -35 -85 -59 -47 -43 -54 -38 -49 -29 -54 -44 -37 -13 -89 -2 -18 -29 -17 -5 -21 -15 -16 -13 -13 -7 -52 -17 -16 -9 27 47 52 79 64 -12 -4 6 -10 -20 -34 -9 -67 -44 -17 -23 123 543 337 -102 -120 -10 -60 3 -71 2 -30 7 3 5 20 46 16 51 63 98 111 142 148 152 160 146 84 101 16 46 -12 -16 -27 -35 -48 -49 -32 -35 -37 -50 -54 -45 -43 -46 -50 -64 -76 -75 -57 -77 -64 -67 -94 -66 -106 -93 -108 -88 -90 -52 -67 -55 -40 -14 -22 4 -2 24 -46 -35 -45 -42 -83 -47 -93 -31 -94 -3 -61 56 551 258 -138 -61 -92 -32 -92 -46 -80 -27 -46 -5 -24 12 7 37 25 59 54 93 84 100 92 109 72 55 14 28 -30 -52 -58 -82 -83 -62 -77 -66 -60 -43 -60 -63 -68 -67 -74 -60 -53 -36 -53 -56 -38 -38 -34 -42 -43 -32 -60 -42 -69 -49 -58 -50 -53 -59 -29 -7 -23 23 19 -11 -46 -35 -80 -58 -112 -71 -110 -69 -88 -20 -79 109 331 69 -189 -86 -102 -65 -110 -59 -103 -42 -67 -40 -35 5 -26 35 12 46 68 84 81 100 112 93 89 72 25 17 6 -2 -57 -17 -46 -11 -31 -12 -27 -4 -10 0 -22 -5 -36 -35 -49 -28 -44 -28 -44 -49 -65 -54 -65 -26 -38 -37 -51 -48 -59 -10 -30 -1 -11 23 14 12 1 -12 -32 -25 -43 -36 -46 -24 -44 10 -22 80 219 170 229 -22 -103 32 -14 -1 -27 0 4 45 20 58 40 66 64 83 88 113 101 129 157 131 149 134 112 98 47 69 18 65 -17 48 5 25 3 26 -10 17 1 8 -9 27 -2 11 -3 22 -29 30 -31 18 9 21 18 29 18 43 46 63 70 66 60 39 -4 8 -9 -5 -18 3 -42 48 -29 109 396 169 112 -49 -84 41 -42 1 -31 8 3 19 33 40 41 62 57 97 92 120 129 144 160 153 165 137 105 90 54 52 -6 19 0 18 -2 16 -7 20 -14 3 -9 2 -4 8 -15 -14 -12 -15 -37 -28 -38 -5 -39 -27 -37 -15 -13 14 24 8 -41 -26 -67 -61 -89 -49 -86 -9 -106 54 -64 103 688 147 -181 -11 -97 -19 -71 -36 -42 -11 -12 -7 -5 18 9 47 18 54 40 74 93 93 122 86 93 82 31 17 -47 -23 -86 -44 -91 -61 -93 -80 -106 -67 -84 -52 -84 -73 -96 -69 -108 -48 -132 -89 -164 -94 -98 -87 -114 -93 -107 -68 -105 -30 -50 3 -28 25 -27 -17 -64 -78 -82 -97 -123 -89 -91 -49 -47 13 141 194 174 -140 -149 -54 -104 -106 -90 -86 -88 -18 -62 -23 -54 18 -19 48 33 91 62 116 82 107 106 116 57 54 -23 -18 -90 -49 -100 -39 -115 -54 -85 -63 -73 -28 -72 -33 -79 -24 -68 -47 -76 -27 -82 -28 -106 -53 -104 -49 -81 -52 -73 -65 -94 -52 -105 -61 -100 -91 -70 -22 -42 14 -22 -28 -92 -66 -112 -90 -122 -79 -95 -72 -101 -9 -43 185 317 -27 -175 -95 -95 -42 -78 -50 -42 -29 -28 -8 -27 10 -6 1 28 75 76 109 114 139 128 129 126 88 82 41 3 -16 -27 -20 -40 -20 -29 -7 -44 -14 -35 -51 -34 -24 -33 -30 -39 -56 -57 -48 -67 -44 -69 -31 -52 -45 -71 -96 -71 -55 -62 -53 -84 -35 -52 -43 -50 -63 -35 -10 -30 26 -38 -64 -84 -101 -116 -105 -121 -64 -121 -59 -71 -73 213 283 -1 -256 -179 -121 -159 -117 -178 -128 -117 -113 -100 -89 -77 -70 -76 -42 -29 -4 -14 13 30 0 33 2 -50 -22 -68 -84 -106 -100 -126 -144 -103 -95 -112 -77 -100 -100 -103 -125 -138 -104 -101 -101 -100 -95 -99 -104 -135 -123 -104 -108 -123 -112 -134 -142 -190 -216 -164 -145 -155 -164 -170 -170 -205 -195 -184 -171 -175 -141 -141 -120 -118 -205 -170 -177 -191 -191 -210 -183 -211 -185 -203 -215 -178 122 349 -8 -323 -274 -186 -242 -221 -199 -204 -162 -142 -147 -151 -131 -116 -99 -108 -76 -72 -34 -33 -25 -21 -62 -38 -63 -83 -110 -134 -150 -186 -164 -174 -160 -166 -208 -151 -141 -187 -108 -146 -111 -140 -177 -116 -108 -123 -133 -141 -123 -120 -113 -118 -90 -118 -169 -140 -90 -125 -135 -70 -73 -90 -74 -56 -73 -38 5 6 -33 -104 
