ADC Sampling rate (Hz):
100
Fragment duration (sec):
20
Number of samples exported by each lead:
1999

#I[uV]
1051 1307 900 1195 748 1041 640 912 480 726 257 238 203 154 134 115 79 66 56 48 38 32 15 0 -23 -13 -10 -23 -17 -17 -31 -12 -38 -38 -37 -26 -36 -36 -51 -55 -61 -65 -60 -66 -41 -63 -62 -54 -47 -63 -63 -40 -30 -5 -11 2 12 2 -40 -59 -53 -61 -52 -53 -72 -54 76 429 275 -168 -186 -100 -111 -99 -89 -68 -71 -48 -33 -8 13 54 97 142 178 217 220 256 233 194 149 113 74 59 33 42 16 20 -15 -17 -23 -27 -41 -44 -57 -36 -61 -62 -53 -38 -51 -66 -39 -69 -54 -49 -58 -61 -43 -39 -37 -11 -13 -3 -13 -1 -34 -67 -41 -69 -64 -57 -59 -63 4 220 234 60 -204 -147 -94 -90 -65 -92 -61 -48 -31 -10 -6 33 82 129 171 204 231 228 208 186 143 106 59 29 31 22 13 12 0 -39 -30 -37 -49 -55 -57 -51 -54 -49 -68 -67 -60 -45 -39 -45 -15 9 -16 -9 -25 -55 -53 -52 -54 -58 -58 -53 -44 200 444 144 -201 -161 -96 -70 -72 -84 -57 -62 -39 -17 19 30 64 131 167 204 227 219 219 181 124 108 64 35 2 5 -2 1 -4 -4 -22 -23 -30 -51 -39 -21 -31 -19 -17 -21 -1 -15 -44 -50 -72 -53 -44 -55 -42 -67 -5 332 423 55 -136 -104 -80 -77 -68 -60 -48 -18 -8 14 31 67 95 153 201 217 222 216 187 144 89 80 27 -3 -9 -6 11 -10 -23 -8 -26 -20 -29 -28 -34 -36 -19 2 -12 -2 0 -44 -43 -50 -41 -41 -45 -42 -71 -4 343 472 94 -139 -96 -58 -77 -85 -54 -41 -28 -2 8 40 63 124 161 215 235 236 226 199 145 124 102 33 20 -14 -18 -3 7 -6 -8 -6 -28 -37 -38 -32 -26 -17 -29 -17 -3 -13 0 -22 -49 -108 -57 -56 -51 -69 -47 -64 44 424 408 -27 -133 -103 -84 -86 -101 -60 -69 -34 -33 -7 28 59 100 153 183 235 220 208 181 121 87 38 40 11 -20 -7 -5 -16 -19 -14 -27 -30 -55 -45 -54 -55 -71 -73 -53 -64 -78 -65 -69 -61 -62 -49 -19 -31 -20 -16 -60 -62 -58 -58 -65 -39 -51 -88 -9 425 482 101 -122 -109 -92 -99 -95 -98 -76 -52 -51 -16 -6 39 88 146 194 213 232 231 192 160 123 96 63 38 6 5 -18 -4 -7 -20 0 -37 -45 -21 -40 -71 -69 -49 -70 -61 -71 -77 -62 -66 -59 -62 -71 -65 -61 -68 -65 -56 -48 -69 -58 -48 -46 -52 -48 -47 -47 -50 -51 -47 -37 -38 -46 -48 -41 -37 -39 -37 -38 -35 -42 -27 6 8 9 27 32 12 -23 -16 -17 -29 -22 -22 -50 76 479 580 147 -65 -56 -69 -64 -83 -63 -49 -24 -10 12 34 69 98 141 194 243 268 296 275 264 222 198 166 132 103 94 83 74 101 75 75 60 48 54 44 29 16 32 27 14 12 9 26 -14 5 12 -1 4 0 -2 14 -2 -6 -6 -3 5 24 14 6 22 -1 7 8 11 6 1 27 30 49 68 48 67 80 37 -7 25 2 7 -18 7 -11 99 576 603 92 -91 -44 -59 -69 -77 -61 -61 -58 0 -4 15 59 105 144 195 225 264 257 248 229 186 153 106 92 57 20 17 18 19 -4 -4 12 -16 -42 -38 -50 -56 -70 -59 -50 -51 -74 -68 -83 -74 -65 -77 -84 -82 -85 -58 -77 -81 -84 -79 -66 -56 -65 -39 -19 -27 -18 1 -30 -75 -82 -54 -72 -70 -87 -78 2 233 287 18 -211 -158 -98 -102 -95 -88 -72 -53 -51 -28 7 34 59 115 163 197 216 242 231 194 168 124 91 58 33 13 5 -2 -3 -7 -39 -56 -56 -67 -65 -85 -81 -70 -91 -72 -91 -109 -96 -76 -95 -74 -76 -75 -68 -47 -39 -40 -38 -45 -79 -93 -100 -90 -105 -84 -73 52 333 230 -170 -208 -129 -110 -118 -121 -94 -75 -77 -38 -27 -8 25 56 122 149 188 208 195 170 129 100 44 20 21 -30 -24 -21 -2 -46 -27 -41 -51 -65 -59 -70 -64 -49 -42 -36 -11 -15 -10 -14 -59 -49 -79 -57 -54 -77 -58 -72 -30 236 351 105 -145 -127 -87 -110 -96 -78 -71 -63 -44 -27 -11 34 53 100 165 194 203 192 173 158 109 43 22 0 -5 -17 -32 -17 -20 -22 -28 -29 -41 -44 -44 -38 -51 -32 -17 -14 -36 -42 -54 -57 -50 -64 -61 -56 -49 -82 -6 273 367 147 -128 -126 -90 -114 -90 -85 -84 -64 -57 -30 5 31 72 87 153 201 178 205 183 143 103 63 28 -17 -19 -35 -33 -34 -24 -35 -47 -52 -69 -68 -56 -48 -64 -50 -47 -48 -21 -31 -72 -87 -78 -85 -85 -80 -83 -96 -83 189 448 150 -165 -123 -99 -99 -112 -96 -86 -81 -61 -42 -23 1 33 81 119 156 176 190 151 133 92 38 24 -8 -36 -44 -47 -41 -37 -27 -35 -44 -61 -67 -69 -67 -49 -65 -82 -67 -57 -26 -34 -25 -13 -54 -72 -82 -77 -87 -80 -89 -72 -88 -31 335 473 97 -167 -146 -88 -113 -105 -100 -99 -76 -45 -39 3 36 52 127 161 179 205 206 186 148 115 79 18 5 -10 -9 -12 -24 -21 -7 -20 -47 -56 -50 -42 -60 -53 -75 -68 -79 -68 -61 -70 -71 -65 -72 -75 -79 -62 -67 -84 -75 -83 -66 -54 -70 -73 -49 -47 -64 -54 -54 -52 -49 -64 -57 -45 -54 -58 -31 -22 -52 -48 -42 -42 -32 -16 14 29 38 39 15 -8 -15 -17 -26 -26 -22 -38 -13 314 632 363 -89 -105 -48 -89 -81 -94 -83 -65 -38 -27 -8 8 40 114 125 169 214 242 252 255 230 192 155 112 100 60 44 38 38 32 17 12 6 -9 -22 -40 -51 -31 -38 -43 -59 -38 -52 -50 -52 -71 -61 -60 -53 -58 -71 -53 -59 -50 -43 -43 -52 -47 -61 -44 -44 -50 -47 -21 -33 -39 -44 -20 9 10 12 20 9 -4 -46 -32 -55 -35 -47 -22 -44 32 456 601 138 -129 -91 -76 -99 -110 -98 -81 -72 -30 -21 12 35 68 123 170 223 274 272 266 243 215 155 115 91 27 23 21 -1 13 -12 0 -14 -45 -54 -54 -34 -72 -65 -51 -80 -70 -88 -87 -101 -79 -67 -69 -78 -159 -70 -65 -93 -71 -45 -52 -29 -52 -32 -9 3 -5 8 23 -1 -53 -50 -45 -38 -51 -68 -71 -11 263 421 63 -218 -144 -80 -102 -76 -65 -72 -60 -36 0 18 17 78 128 171 195 233 239 245 230 192 136 103 88 68 17 6 34 27 -6 -35 -25 -45 -40 -47 -53 -63 -66 -59 -57 -82 -49 -63 -70 -61 -76 -72 -35 -66 -53 -46 -26 12 -18 -19 -19 -47 -61 -57 -61 -44 -52 -64 -27 223 379 57 -220 -164 -80 -85 -77 -78 -57 -26 -53 -32 19 43 80 106 160 226 230 243 236 225 185 138 92 63 46 20 43 26 30 24 13 13 8 5 -4 -18 -11 -21 2 17 29 30 26 21 8 -21 -21 -25 -6 -11 -12 -27 12 261 513 216 -154 -92 -26 -45 -58 -41 -11 -26 7 22 35 61 105 162 193 221 261 274 244 217 191 123 85 66 46 11 11 20 14 8 -4 -7 -11 -38 -34 -25 -24 -16 -14 0 5 12 -3 -39 -49 -50 -50 -51 -50 -52 -59 -35 329 515 132 -158 -116 -91 -86 -94 -86 -73 -58 -58 -19 1 37 68 116 166 210 234 221 220 182 116 78 40 17 -7 -1 -7 -19 -20 -8 -10 -8 -27 -33 -38 -42 -37 -38 -17 -20 9 -22 4 -37 -58 -61 -87 -77 -79 -82 -53 -102 -11 427 510 23 -134 -121 -120 -117 -125 -94 -97 -83 -56 -54 -9 30 50 101 153 210 220 213 186 175 136 97 55 23 -3 -7 -20 -15 -27 -26 -26 -47 -36 -24 -50 -57 -71 -54 -37 -49 -48 -20 -39 -9 -7 0 -31 -59 -53 -54 -61 -51 -58 -59 -79 39 544 542 60 -116 -106 -105 -116 -102 -79 -89 -84 -74 -42 -4 24 76 133 161 207 244 240 208 171 134 103 35 7 -10 -23 -33 -35 -32 -26 -46 -38 -64 -71 -56 -63 -82 -60 -90 -65 -80 -85 -76 -79 -82 -69 -58 -52 -46 -16 -15 -18 -7 -54 -67 -58 -53 -59 -75 -61 -89 -43 392 611 231 -129 -122 -101 -114 -102 -108 -110 -91 -70 -38 -13 4 46 114 153 202 240 263 247 216 172 146 92 78 29 29 11 -2 13 -6 -7 -1 -19 -39 -36 -28 -39 -53 -56 -32 -44 -51 -38 -47 -33 -37 -45 -36 -35 -53 -39 -27 -47 -22 -13 -17 -16 -14 -19 -21 -18 -28 -5 -2 -20 -17 -16 -43 -24 -12 -36 -32 -22 -9 -28 -21 -24 9 20 23 19 28 -3 -19 -35 -14 -22 -23 16 -32 76 448 434 22 -147 -79 -36 -68 -55 -71 -57 -35 15 10 38 60 93 160 201 247 278 273 273 281 261 193 180 152 115 94 83 83 66 54 45 23 21 0 -7 -14 -41 -5 -2 -39 -33 -42 -51 -32 -28 -30 -49 -31 -35 -61 -54 -36 -47 -32 -51 -42 -59 -34 -52 -28 0 20 16 24 34 6 -46 -34 -67 -34 -20 -49 -37 -6 222 447 150 -217 -146 -74 -83 -66 -66 -49 -56 -23 0 2 45 69 110 186 204 241 257 242 240 204 154 117 83 74 53 53 28 44 31 25 4 -11 -9 -12 -17 -26 -22 -30 -40 -30 -27 -22 -43 -29 -49 -35 -12 -16 -10 -3 20 16 10 20 -28 -24 -25 -19 -18 -43 8 -13 114 437 283 -85 -138 -71 -41 -44 -38 -42 -27 -14 -5 31 33 72 125 149 218 240 262 264 251 213 181 154 94 59 56 38 48 42 21 21 25 18 10 -1 0 -22 -28 -16 -21 -31 0 1 6 -2 -5 -12 -41 -60 -58 -59 -55 -70 -59 -58 101 511 327 -114 -133 -83 -82 -70 -82 -78 -31 -33 -35 -8 13 53 87 149 201 238 260 269 222 189 146 87 63 21 0 16 2 0 10 -16 -22 -10 -24 -29 -45 -55 -60 -46 -39 -25 -27 -3 6 3 0 -20 -30 -39 -34 -56 -30 -60 -44 -58 7 442 551 166 -120 -76 -55 -76 -78 -76 -58 -22 -33 0 19 58 93 136 177 235 259 269 230 202 166 117 98 45 6 -5 -16 -31 -32 -23 -19 -18 -39 -38 -62 -61 -58 -60 -65 -75 -61 -47 -67 -32 -39 -25 2 -7 -6 -20 -64 -67 -58 -95 -56 -77 -92 -93 89 582 524 -26 -141 -104 -136 -136 -114 -113 -116 -90 -69 -58 -33 
#II[uV]
-327 -1783 -208 -1654 -72 -1501 115 -1323 248 -1207 311 281 247 196 173 142 106 62 36 5 -27 -53 -91 -124 -166 -172 -184 -205 -208 -218 -203 -209 -214 -218 -210 -214 -204 -175 -173 -175 -138 -145 -160 -146 -130 -166 -133 -132 -124 -132 -110 -69 -35 -33 51 30 2 -18 -39 -60 -43 -46 -6 -9 8 -3 112 720 746 -45 -367 -195 -39 -39 0 -12 32 50 88 110 156 197 261 332 415 462 543 561 560 484 426 368 310 270 227 198 165 153 132 102 107 90 95 68 69 73 55 45 80 68 90 73 87 88 109 114 109 91 123 145 176 190 221 221 209 170 139 106 113 96 104 95 111 137 129 429 925 459 -245 -273 -76 16 34 48 87 81 136 143 171 248 336 371 549 560 651 652 666 621 539 473 431 355 329 286 299 234 234 211 182 166 142 143 118 93 129 92 80 69 82 123 162 164 188 197 167 107 56 67 -3 -23 -15 15 -38 26 47 324 890 375 -380 -457 -292 -108 -126 -84 -56 -45 -2 31 96 117 188 276 362 461 521 535 521 463 368 273 181 123 105 94 66 88 65 37 36 8 -9 -43 0 8 30 42 45 55 46 -43 -95 -122 -147 -146 -159 -127 -161 -65 23 393 715 -108 -654 -447 -293 -216 -175 -165 -143 -115 -85 -48 -6 37 115 226 331 382 415 392 324 267 169 91 -5 -61 -75 -71 -92 -96 -95 -105 -125 -148 -179 -166 -126 -103 -94 -84 -91 -135 -221 -256 -273 -311 -283 -305 -337 -345 -238 -180 184 539 -300 -894 -656 -477 -439 -431 -400 -373 -338 -314 -290 -268 -222 -141 -44 43 82 124 104 24 -69 -122 -194 -275 -336 -327 -358 -345 -340 -354 -359 -373 -394 -403 -425 -410 -385 -362 -321 -294 -278 -277 -300 -357 -395 -362 -394 -379 -370 -345 -337 -279 -141 339 506 -269 -729 -520 -370 -337 -328 -312 -269 -223 -187 -149 -151 -81 10 103 171 230 256 242 212 121 27 -50 -86 -163 -142 -130 -155 -145 -176 -155 -217 -238 -260 -284 -277 -305 -295 -304 -303 -327 -304 -293 -234 -210 -142 -152 -168 -125 -93 -179 -201 -226 -207 -203 -191 -220 -209 -132 -87 399 798 141 -482 -397 -216 -199 -176 -166 -117 -60 -59 -10 21 65 175 211 281 394 439 426 403 369 278 185 154 92 108 102 106 83 78 36 11 -8 -23 -35 -70 -79 -95 -88 -127 -138 -148 -143 -142 -122 -124 -127 -122 -107 -132 -107 -98 -77 -93 -90 -94 -93 -119 -100 -99 -87 -88 -99 -99 -92 -142 -87 -103 -89 -99 -100 -93 -67 -78 -58 -40 7 17 51 38 7 -33 -15 -51 -44 -44 -51 -35 -19 -10 49 486 929 258 -348 -279 -135 -130 -96 -117 -62 -37 -8 13 72 79 160 218 313 365 434 456 451 450 398 335 297 227 218 181 155 139 145 94 71 43 32 21 -1 -8 -45 -19 -34 -32 -38 -42 -24 -52 -27 -28 -42 -38 -40 -43 -30 -29 -51 -21 -21 -40 -20 -22 -6 -16 -10 -27 0 -19 -16 -9 42 56 88 100 112 49 52 9 16 1 12 -14 -3 -16 31 77 586 876 239 -363 -231 -113 -77 -66 -29 -39 13 28 54 94 158 208 298 356 432 500 526 522 507 432 396 319 298 242 226 202 202 182 158 131 146 83 91 53 73 45 45 42 52 43 49 49 56 43 80 40 77 42 75 52 58 46 51 46 83 96 126 122 174 154 142 112 90 44 54 34 56 47 5 59 77 387 899 403 -284 -308 -102 -13 1 -1 22 43 88 105 141 182 243 298 409 496 545 598 604 555 507 417 391 317 266 229 219 157 155 151 97 80 72 59 40 -1 42 2 25 12 28 -16 9 -2 7 17 83 100 126 126 162 94 111 11 20 -32 -33 -24 -54 -15 40 139 676 681 -107 -482 -276 -124 -120 -108 -69 -41 -15 26 51 124 140 221 324 399 497 542 535 533 434 376 248 191 155 134 127 141 114 127 123 67 71 39 14 -4 37 66 86 123 158 142 127 91 40 -22 -34 -40 -50 -22 -57 37 112 373 834 231 -465 -428 -232 -115 -132 -76 -24 -35 32 32 59 126 204 305 417 500 550 547 546 452 343 252 174 90 75 61 80 80 58 48 56 42 17 13 -7 40 74 72 121 89 101 8 -44 -73 -96 -110 -101 -86 -136 -54 75 410 821 98 -565 -454 -245 -191 -139 -128 -100 -79 -37 -47 11 50 161 221 346 408 429 429 414 287 214 113 28 -44 -43 -91 -65 -85 -57 -95 -89 -114 -149 -172 -126 -141 -99 -86 -58 -88 -100 -168 -226 -271 -264 -299 -310 -289 -316 -275 -188 84 616 47 -742 -702 -499 -391 -371 -356 -324 -331 -272 -262 -210 -183 -102 -23 82 150 212 224 185 113 44 -53 -137 -216 -263 -277 -254 -249 -226 -248 -242 -276 -294 -311 -322 -336 -323 -338 -319 -287 -227 -209 -209 -220 -221 -340 -343 -362 -402 -422 -409 -424 -426 -361 -291 108 597 -123 -835 -716 -526 -498 -464 -454 -420 -408 -339 -325 -295 -219 -151 -53 42 95 165 154 105 80 7 -70 -138 -193 -202 -214 -199 -214 -194 -215 -216 -265 -278 -288 -284 -312 -321 -345 -341 -343 -328 -338 -335 -343 -328 -333 -332 -337 -332 -315 -318 -319 -304 -315 -294 -308 -318 -295 -298 -305 -290 -292 -291 -302 -294 -295 -273 -289 -275 -274 -264 -277 -280 -259 -229 -209 -193 -180 -158 -163 -216 -222 -232 -263 -255 -280 -255 -314 -223 -261 70 794 437 -425 -568 -445 -365 -378 -362 -347 -308 -295 -267 -229 -204 -167 -91 -30 67 107 165 175 168 143 97 43 -22 -44 -42 -61 -74 -88 -99 -155 -142 -159 -202 -184 -214 -211 -221 -237 -215 -230 -219 -222 -211 -210 -249 -206 -185 -189 -182 -197 -171 -182 -180 -148 -163 -161 -152 -158 -147 -136 -138 -139 -141 -116 -100 -105 -100 -41 -16 -19 -59 -113 -110 -157 -166 -166 -166 -154 -156 -139 -103 359 832 264 -409 -400 -229 -219 -218 -196 -172 -149 -104 -92 -50 -2 49 116 215 277 315 365 393 398 397 326 268 224 158 137 101 67 38 23 -12 -52 -62 -85 -110 -123 -147 -131 -133 -159 -152 -198 -162 -177 -177 -135 -142 -177 -117 -133 -152 -152 -119 -120 -106 -95 -71 -63 -43 -16 13 -31 -48 -98 -105 -133 -97 -94 -93 -150 -73 -154 188 908 318 -435 -476 -324 -144 -154 -162 -118 -91 -103 -48 -56 -4 53 94 174 287 350 391 414 366 283 269 190 106 72 24 -41 -56 -73 -107 -150 -144 -190 -247 -215 -219 -253 -258 -257 -237 -263 -301 -273 -255 -237 -225 -223 -232 -173 -139 -160 -125 -88 -129 -154 -165 -196 -221 -217 -224 -173 -207 -139 -143 187 771 167 -544 -526 -325 -199 -186 -151 -152 -107 -76 -46 12 71 108 218 321 421 486 543 527 521 446 400 323 277 222 226 239 221 198 210 190 175 172 166 114 132 150 196 194 233 274 275 234 220 143 161 99 118 108 106 53 147 198 474 1035 509 -272 -296 -108 26 -8 65 66 116 137 151 171 240 296 382 485 542 598 637 617 577 479 421 312 252 214 187 187 182 168 151 143 126 88 77 65 98 112 136 147 153 122 137 45 -4 -12 -32 -32 -70 -44 -61 10 44 420 978 215 -545 -409 -231 -201 -149 -158 -111 -93 -59 -36 -24 2 100 141 278 339 413 406 398 329 248 145 59 -5 -19 -41 -43 -64 -57 -81 -91 -107 -135 -164 -161 -175 -166 -154 -118 -99 -110 -140 -172 -256 -291 -321 -350 -352 -359 -349 -336 -294 -224 263 580 -197 -763 -646 -500 -489 -467 -453 -410 -397 -332 -332 -273 -209 -147 -62 25 91 144 142 139 88 48 -27 -70 -129 -122 -149 -125 -125 -131 -151 -151 -187 -184 -197 -203 -209 -213 -217 -160 -145 -113 -79 -56 -58 -52 -83 -139 -165 -155 -190 -180 -194 -160 -156 -92 -28 523 701 27 -516 -378 -245 -210 -199 -175 -165 -111 -92 -39 -36 6 55 151 205 270 296 318 268 242 156 85 0 -42 -68 -84 -106 -124 -145 -160 -204 -218 -278 -306 -318 -335 -363 -359 -374 -395 -407 -413 -418 -419 -409 -365 -343 -295 -295 -280 -290 -298 -354 -394 -422 -437 -423 -443 -434 -456 -384 -375 19 599 35 -674 -665 -538 -494 -454 -458 -424 -401 -343 -327 -281 -267 -188 -131 -49 9 83 95 107 63 26 -35 -90 -125 -138 -143 -149 -158 -153 -182 -186 -223 -235 -239 -240 -265 -271 -289 -271 -270 -256 -268 -241 -250 -229 -226 -216 -227 -201 -215 -189 -195 -197 -202 -190 -210 -197 -209 -217 -212 -217 -218 -185 -207 -198 -186 -189 -204 -187 -187 -166 -178 -160 -154 -144 -121 -110 -94 -50 -51 -93 -132 -137 -132 -160 -158 -160 -137 -111 -111 -40 455 764 44 -524 -353 -202 -170 -154 -169 -130 -109 -50 -30 2 47 90 179 280 357 427 453 481 495 431 367 331 280 245 199 188 162 144 99 87 64 65 17 27 0 -32 -13 -8 -27 -9 -43 -41 -37 1 -11 1 -16 -4 -17 -12 -3 12 15 14 -8 27 27 46 74 108 126 158 140 91 91 44 31 47 31 88 21 92 66 377 980 536 -233 -332 -126 12 -16 70 47 69 102 133 132 215 226 287 411 511 543 614 623 629 547 496 417 371 315 293 285 269 247 235 235 227 201 202 204 182 182 187 188 215 209 209 219 212 219 239 228 290 308 315 330 374 325 305 269 233 205 193 193 198 173 229 244 385 896 825 35 -335 -128 38 24 62 53 111 113 140 176 197 226 305 385 478 534 607 596 571 513 453 350 270 196 173 159 166 135 119 106 98 78 64 34 32 7 -3 7 42 37 85 93 114 88 58 -3 -47 -49 -91 -91 -78 -91 -49 -14 148 748 669 -196 -518 -331 -175 -175 -146 -131 -84 -70 -31 6 54 106 174 269 367 447 497 527 498 448 368 275 212 141 125 125 119 131 140 115 100 88 69 58 50 41 30 31 82 71 107 139 154 120 92 11 -22 -42 -57 -72 -47 -60 -51 14 71 541 920 265 -413 -299 -143 -126 -92 -93 -40 -14 22 54 68 138 219 299 389 456 519 530 510 467 411 339 275 229 193 180 193 178 183 183 165 142 120 90 52 68 49 37 28 17 26 34 70 80 117 132 152 121 82 19 -3 -5 -52 -33 15 -16 15 40 177 777 786 94 -310 -200 -64 -67 -39 -51 -13 34 47 74 106 
#III[uV]
-1378 -3091 -1109 -2849 -821 -2542 -525 -2235 -232 -1934 53 43 43 41 38 26 26 -4 -20 -43 -65 -86 -107 -125 -142 -158 -174 -182 -190 -201 -171 -196 -175 -179 -173 -187 -167 -138 -122 -119 -76 -80 -100 -80 -89 -103 -71 -77 -77 -68 -47 -28 -5 -28 62 27 -10 -21 0 -1 9 14 45 44 80 51 36 291 470 123 -181 -95 71 59 89 55 104 98 122 119 142 143 164 190 237 244 322 304 327 290 276 254 235 211 194 155 148 133 147 120 131 118 137 113 127 109 116 107 134 106 141 140 127 157 164 164 167 152 166 185 214 201 235 224 222 171 174 174 155 166 169 153 171 201 124 209 690 399 -40 -126 17 106 99 141 148 130 167 153 178 214 254 242 377 355 419 423 458 435 396 366 371 326 298 264 286 221 233 250 212 204 192 199 176 144 184 141 148 137 142 169 201 209 203 187 183 116 82 123 49 29 39 74 20 79 91 124 446 231 -178 -295 -196 -37 -53 0 1 16 36 49 76 87 123 145 194 256 293 316 302 281 243 164 116 87 103 88 69 87 70 41 59 32 21 8 39 30 61 61 62 77 47 -28 -50 -71 -74 -92 -115 -71 -118 1 29 60 292 -164 -517 -343 -213 -138 -107 -104 -95 -97 -76 -63 -38 -29 19 72 130 164 193 176 136 122 80 11 -32 -57 -65 -65 -103 -86 -72 -97 -99 -128 -150 -138 -91 -67 -74 -86 -78 -132 -221 -212 -229 -261 -242 -264 -292 -302 -166 -176 -158 66 -395 -754 -559 -418 -361 -345 -345 -331 -309 -312 -299 -309 -286 -265 -206 -172 -152 -112 -121 -174 -214 -247 -296 -308 -356 -312 -340 -342 -348 -347 -351 -366 -366 -365 -387 -378 -358 -344 -291 -277 -275 -263 -300 -335 -346 -253 -337 -322 -318 -275 -289 -215 -185 -85 97 -242 -595 -417 -286 -250 -227 -251 -199 -189 -154 -141 -179 -140 -90 -50 -12 -5 35 33 30 0 -60 -88 -126 -174 -122 -122 -149 -129 -157 -141 -190 -207 -204 -238 -222 -249 -223 -231 -249 -263 -226 -227 -164 -148 -80 -102 -148 -93 -72 -163 -141 -163 -149 -145 -126 -181 -158 -43 -77 -26 316 39 -360 -287 -123 -99 -81 -68 -41 -8 -7 5 27 25 87 65 87 181 207 195 210 208 154 89 91 54 101 96 125 87 86 57 10 28 21 -14 -29 -8 -26 -38 -56 -77 -77 -66 -79 -55 -64 -65 -50 -42 -71 -38 -33 -21 -44 -21 -35 -44 -73 -47 -51 -40 -40 -49 -47 -44 -104 -48 -56 -40 -58 -63 -54 -29 -40 -22 2 35 11 42 28 -20 -66 -27 -27 -27 -26 -21 -12 3 40 -27 6 349 111 -282 -223 -65 -65 -13 -53 -13 -13 1 1 37 10 61 77 118 121 166 160 175 186 176 136 130 95 115 86 71 64 43 18 -4 -16 -16 -33 -46 -38 -62 -51 -61 -47 -51 -52 -51 -37 -33 -40 -41 -42 -40 -40 -45 -27 -45 -14 -18 -46 -45 -36 -12 -39 -9 -35 -9 -30 -22 -10 15 25 39 32 64 -18 -28 -28 23 -23 9 -22 14 -23 43 -21 9 272 146 -271 -186 -53 -8 10 32 21 72 28 59 78 99 103 153 160 206 236 268 274 277 246 243 213 205 184 206 185 183 163 163 136 134 99 134 92 123 102 115 101 102 95 124 117 140 118 146 118 161 124 161 110 136 127 136 125 149 153 191 162 193 181 160 110 121 120 137 88 129 118 93 137 74 154 612 384 -73 -150 -3 88 97 87 94 96 139 134 134 147 183 182 245 299 329 355 372 361 339 292 300 259 233 215 214 159 158 158 136 136 129 126 106 83 123 72 117 84 119 92 106 73 103 91 159 175 194 173 202 134 149 57 100 60 67 66 51 68 114 86 342 450 63 -274 -146 -13 -1 12 24 33 62 64 78 133 114 165 202 250 309 333 339 362 304 276 203 171 133 164 151 162 116 173 150 109 123 105 74 65 101 115 128 159 169 158 137 105 100 26 45 17 3 54 1 110 142 136 482 126 -319 -300 -144 -5 -35 2 47 28 77 60 71 92 151 205 252 305 346 355 373 293 233 208 151 89 80 78 112 97 79 70 84 72 59 58 37 79 126 104 139 103 138 50 10 -16 -45 -45 -40 -30 -86 28 82 137 454 -49 -437 -328 -155 -76 -49 -43 -15 -15 19 -17 6 18 88 133 193 206 250 224 230 144 111 49 0 -27 -23 -55 -31 -50 -33 -60 -41 -61 -79 -104 -70 -93 -34 -35 -10 -40 -79 -137 -154 -184 -186 -214 -224 -208 -233 -178 -104 -105 168 -103 -576 -578 -399 -292 -258 -259 -238 -249 -211 -219 -187 -184 -135 -104 -37 -5 36 33 34 -19 -48 -92 -161 -208 -226 -233 -207 -208 -189 -220 -206 -231 -233 -244 -252 -268 -274 -273 -237 -220 -169 -183 -175 -194 -207 -285 -270 -280 -324 -335 -328 -334 -353 -273 -260 -226 123 -220 -667 -569 -438 -384 -358 -354 -320 -332 -294 -285 -298 -255 -204 -180 -119 -84 -40 -52 -81 -67 -107 -149 -156 -199 -191 -205 -186 -190 -173 -208 -195 -218 -221 -238 -242 -252 -268 -269 -272 -264 -259 -277 -265 -271 -263 -261 -256 -258 -269 -247 -233 -244 -221 -248 -240 -238 -244 -246 -251 -241 -235 -237 -239 -253 -230 -237 -228 -234 -216 -242 -242 -225 -232 -216 -187 -176 -176 -194 -188 -201 -255 -237 -223 -247 -238 -253 -228 -291 -184 -247 -243 162 74 -335 -462 -397 -275 -296 -267 -263 -243 -257 -240 -220 -213 -207 -205 -155 -102 -107 -77 -77 -86 -86 -94 -112 -134 -145 -103 -106 -112 -127 -131 -172 -154 -166 -192 -162 -173 -160 -189 -199 -172 -171 -181 -169 -160 -158 -177 -144 -125 -136 -124 -126 -117 -123 -130 -105 -120 -108 -105 -97 -103 -92 -87 -92 -119 -82 -61 -60 -79 -51 -26 -31 -80 -123 -105 -111 -134 -111 -131 -107 -133 -95 -136 -96 230 126 -280 -309 -152 -119 -108 -98 -90 -76 -73 -70 -62 -38 -19 -7 45 54 41 92 127 155 182 171 152 133 131 113 80 69 24 36 -13 -38 -17 -30 -56 -88 -75 -65 -81 -78 -81 -109 -75 -76 -98 -68 -73 -99 42 -63 -86 -59 -48 -74 -53 -66 -18 -31 -33 -20 18 -39 -71 -97 -52 -82 -51 -55 -41 -82 -2 -142 -75 486 254 -217 -331 -244 -42 -77 -96 -45 -30 -67 -48 -75 -22 -25 -34 3 92 116 152 169 136 91 133 87 17 3 7 -47 -90 -101 -100 -114 -119 -145 -206 -167 -165 -189 -191 -197 -179 -180 -251 -210 -184 -175 -149 -151 -197 -106 -86 -114 -98 -101 -111 -134 -146 -148 -160 -159 -163 -128 -155 -74 -116 -36 391 109 -324 -361 -244 -113 -109 -73 -95 -80 -23 -14 -6 27 28 111 161 195 256 299 291 295 260 261 230 214 175 205 196 195 167 186 176 162 164 161 119 150 161 217 192 215 244 244 207 199 135 183 120 144 114 118 66 175 186 212 521 293 -118 -204 -81 72 50 107 77 142 129 129 135 178 190 220 292 321 337 363 373 360 288 297 227 185 167 176 176 162 154 143 147 133 99 115 99 123 136 153 162 153 117 125 49 34 36 18 18 -19 5 -9 70 79 90 463 83 -386 -292 -140 -115 -55 -72 -37 -34 0 -17 -25 -34 32 25 112 128 178 185 178 147 131 66 18 -22 -11 -39 -36 -45 -36 -72 -80 -99 -107 -131 -123 -132 -129 -116 -101 -78 -119 -118 -176 -219 -232 -260 -263 -274 -279 -266 -283 -192 -213 -164 70 -220 -629 -525 -380 -372 -341 -359 -312 -313 -275 -278 -263 -239 -198 -163 -128 -118 -76 -70 -46 -87 -88 -125 -125 -152 -118 -142 -104 -109 -104 -125 -124 -139 -147 -172 -152 -151 -141 -162 -122 -95 -64 -59 -17 -49 -44 -83 -107 -105 -101 -136 -118 -143 -101 -97 -13 -67 -21 158 -32 -400 -271 -139 -93 -97 -95 -75 -27 -17 2 -31 -18 -20 17 43 63 51 78 59 70 22 -17 -36 -49 -58 -61 -72 -88 -112 -134 -158 -180 -214 -235 -262 -271 -280 -299 -284 -330 -327 -328 -342 -339 -326 -295 -284 -242 -249 -264 -275 -280 -346 -340 -354 -378 -370 -383 -358 -394 -294 -332 -372 -11 -195 -545 -542 -436 -379 -351 -350 -314 -310 -273 -289 -268 -272 -235 -246 -203 -192 -157 -168 -139 -152 -146 -182 -182 -204 -168 -172 -160 -156 -167 -176 -178 -221 -215 -199 -203 -236 -231 -235 -214 -237 -211 -217 -203 -202 -196 -189 -171 -191 -166 -161 -149 -167 -150 -179 -176 -192 -181 -195 -197 -190 -199 -189 -180 -205 -178 -168 -172 -161 -162 -174 -129 -146 -138 -145 -116 -99 -85 -104 -70 -74 -112 -160 -133 -112 -124 -144 -137 -113 -127 -78 -117 7 329 22 -377 -273 -165 -102 -98 -97 -72 -74 -65 -41 -35 -12 -2 18 79 109 149 179 207 214 169 174 150 128 130 104 105 79 77 45 42 40 44 18 34 14 9 -8 -5 11 23 -1 9 -5 29 18 50 15 31 44 42 33 59 48 66 33 87 61 98 102 107 105 142 116 57 85 90 66 114 66 109 71 130 72 154 532 386 -15 -186 -52 95 50 136 97 125 125 133 129 169 156 176 225 307 302 356 381 389 342 342 300 287 240 239 232 240 202 204 209 222 212 211 216 199 209 209 219 255 239 236 242 256 249 288 264 303 324 326 333 353 308 295 248 262 229 219 212 216 216 221 258 271 459 541 121 -197 -57 79 69 100 95 139 128 145 144 164 153 179 236 260 294 345 331 319 299 271 195 176 137 117 120 118 92 97 85 73 60 53 35 32 30 24 23 63 69 84 92 107 90 63 8 -5 11 -32 -32 -23 -21 10 44 46 237 341 -81 -384 -248 -92 -104 -64 -52 -53 -36 3 14 40 53 86 120 166 209 237 258 275 259 222 188 148 120 124 109 116 130 130 132 122 99 93 88 95 97 91 77 121 96 134 142 148 116 93 32 8 -2 -22 -16 -17 0 -6 73 64 98 369 98 -293 -223 -87 -50 -14 -17 18 7 56 55 49 80 126 163 211 221 260 260 280 265 245 221 177 183 186 186 210 210 216 207 185 160 159 128 114 129 108 98 93 92 87 82 137 112 156 157 150 128 88 40 61 61 5 62 71 61 108 133 88 194 261 120 -169 -96 72 69 75 62 103 125 116 132 139 
#avR[uV]
-361 238 -345 229 -337 229 -378 205 -364 240 -284 -260 -225 -175 -154 -128 -93 -64 -46 -26 -5 10 38 61 95 93 97 114 113 117 117 110 126 128 123 120 120 105 112 115 100 105 110 106 86 114 98 93 85 97 86 55 32 19 -20 -16 -7 7 39 60 48 54 29 31 31 29 -94 -575 -510 107 277 148 75 69 45 40 19 -1 -27 -50 -84 -126 -179 -237 -297 -340 -381 -408 -397 -339 -287 -241 -192 -165 -130 -120 -90 -87 -58 -42 -42 -31 -27 -12 -6 -18 3 8 -13 -14 -19 -3 -24 -9 -27 -32 -25 -15 -39 -53 -69 -89 -103 -109 -97 -84 -52 -19 -35 -13 -20 -18 -26 -37 -67 -324 -580 -259 224 210 85 37 15 22 -12 -16 -52 -66 -82 -140 -209 -250 -360 -382 -441 -440 -437 -404 -341 -290 -245 -192 -180 -154 -156 -123 -117 -85 -76 -64 -46 -44 -30 -20 -37 -21 -6 0 -11 -39 -61 -59 -86 -103 -75 -48 -15 -6 28 38 34 21 48 13 -1 -262 -667 -259 290 309 194 89 99 84 56 53 21 -7 -57 -74 -126 -204 -264 -332 -374 -377 -370 -322 -246 -191 -123 -79 -53 -50 -31 -44 -30 -16 -7 7 19 47 20 6 0 -11 -14 -17 -22 29 69 86 109 99 102 91 101 66 -9 -363 -569 26 395 275 187 146 122 113 96 66 47 17 -12 -52 -105 -190 -266 -299 -319 -304 -256 -206 -129 -85 -10 32 42 39 40 53 59 56 76 84 104 97 80 69 56 40 52 68 110 150 158 180 162 173 191 194 154 92 -264 -505 102 516 376 267 258 258 227 207 183 158 141 114 79 8 -58 -129 -159 -180 -165 -111 -37 0 45 121 157 170 188 174 166 180 183 190 211 220 231 221 206 189 175 155 141 145 150 189 222 235 226 218 210 207 192 172 48 -381 -457 148 431 312 227 212 214 186 169 129 110 78 61 10 -55 -128 -177 -233 -238 -225 -197 -121 -57 5 22 75 81 68 80 80 98 85 122 134 157 165 166 180 183 188 178 195 191 179 152 136 102 100 94 78 56 97 131 144 132 130 128 130 130 110 48 -412 -640 -121 302 253 154 149 136 132 96 56 55 13 -7 -52 -131 -178 -237 -303 -336 -329 -298 -265 -200 -140 -109 -65 -57 -53 -44 -39 -35 -8 -6 22 34 28 55 75 82 69 98 100 109 110 102 94 92 94 96 86 96 88 82 67 70 79 76 70 82 76 73 67 67 75 75 70 90 62 74 69 70 69 66 52 58 46 41 9 -12 -30 -24 -17 0 1 37 30 30 40 28 20 30 -62 -482 -755 -202 207 168 102 97 89 90 56 30 9 -13 -53 -74 -129 -179 -254 -304 -351 -376 -363 -357 -310 -267 -231 -180 -160 -137 -119 -107 -123 -85 -73 -51 -40 -38 -21 -10 14 -6 3 9 13 16 -1 33 10 8 22 16 20 22 7 15 28 13 12 17 -1 3 0 -2 5 10 -3 3 4 3 -34 -43 -68 -84 -80 -58 -66 -23 -4 -13 -7 3 11 4 -10 -88 -581 -740 -166 227 137 86 73 72 45 50 22 -13 -25 -54 -109 -157 -221 -275 -328 -382 -391 -385 -368 -309 -274 -213 -195 -150 -123 -110 -110 -101 -77 -63 -79 -33 -24 -7 -11 5 12 8 0 4 12 9 13 15 -7 18 3 19 5 3 9 17 16 16 -8 -19 -30 -41 -77 -63 -62 -56 -30 15 14 10 7 11 41 9 -40 -310 -593 -210 248 233 100 58 46 45 24 4 -18 -38 -74 -108 -151 -207 -286 -346 -381 -420 -417 -374 -337 -270 -241 -187 -150 -121 -112 -77 -76 -72 -28 -12 -8 4 12 43 19 33 32 30 31 63 43 39 43 28 -3 -12 -28 -39 -61 -26 -36 17 29 62 66 57 80 50 16 -96 -505 -455 138 345 202 117 119 114 82 58 46 6 -11 -57 -83 -139 -223 -274 -342 -375 -365 -352 -282 -238 -146 -106 -88 -52 -51 -60 -56 -40 -48 -13 -10 12 22 37 13 -8 -22 -43 -73 -63 -58 -38 9 36 57 49 52 49 58 17 -40 -304 -593 -168 305 278 160 112 114 77 48 49 6 -2 -23 -80 -129 -202 -291 -347 -377 -370 -359 -305 -226 -147 -98 -45 -34 -21 -24 -31 -18 -12 -13 -6 12 15 26 0 -11 -20 -52 -37 -32 16 49 65 73 87 81 71 92 68 -34 -341 -594 -123 347 290 168 152 114 106 92 71 47 39 -8 -41 -117 -154 -249 -305 -303 -317 -299 -215 -158 -88 -28 30 31 63 49 60 40 65 68 83 109 120 91 94 82 68 52 68 61 99 149 179 171 192 198 184 199 185 135 -136 -532 -99 454 413 299 245 242 226 205 206 167 152 117 90 34 -28 -100 -153 -194 -207 -168 -123 -68 7 56 112 150 160 151 145 131 138 138 160 177 189 195 201 186 201 200 177 142 117 121 122 117 197 208 222 239 255 245 256 249 225 161 -222 -535 13 501 431 307 306 285 277 260 242 192 182 146 91 49 -37 -101 -137 -185 -180 -145 -114 -61 -4 60 94 106 112 106 119 107 111 118 156 167 169 163 186 187 210 204 211 198 200 203 207 196 203 203 208 197 191 201 197 193 190 174 189 195 172 172 185 172 173 172 175 179 176 159 172 167 152 143 164 164 150 135 121 105 83 64 62 88 103 120 139 136 153 141 168 130 137 -192 -713 -400 257 336 247 227 230 228 215 186 167 147 119 97 63 -11 -47 -118 -161 -203 -213 -211 -187 -144 -99 -44 -28 -9 8 17 25 33 68 65 76 105 103 127 131 126 138 129 144 128 137 130 131 160 133 122 121 120 134 112 121 115 96 103 107 100 110 95 90 94 93 81 74 69 74 60 15 2 3 19 52 57 102 99 110 100 100 89 92 35 -408 -717 -201 269 245 152 159 164 147 127 111 67 57 19 -16 -58 -119 -193 -250 -294 -318 -330 -321 -306 -240 -192 -158 -92 -80 -61 -33 -26 -5 6 33 53 70 82 79 109 98 92 120 111 143 125 139 128 101 106 127 138 101 109 123 95 82 79 62 62 48 26 6 -4 11 12 49 79 91 71 66 72 109 72 83 -225 -665 -191 326 310 202 123 115 114 95 76 70 24 19 -6 -66 -111 -173 -241 -292 -315 -330 -298 -237 -202 -147 -97 -70 -21 17 11 23 57 92 85 117 144 131 136 158 162 158 147 173 175 168 163 149 151 148 134 119 96 103 75 38 74 87 92 121 141 137 143 109 129 101 85 -205 -575 -112 382 345 202 142 132 114 104 67 64 39 -15 -57 -94 -162 -240 -324 -358 -393 -382 -373 -316 -269 -208 -170 -134 -123 -141 -123 -114 -117 -102 -94 -90 -86 -55 -57 -69 -87 -98 -125 -152 -153 -130 -120 -75 -70 -39 -46 -50 -47 -20 -60 -105 -367 -774 -363 213 194 67 9 33 -12 -27 -45 -72 -87 -103 -151 -200 -272 -339 -382 -429 -455 -430 -397 -335 -272 -199 -159 -130 -99 -99 -101 -91 -79 -69 -59 -38 -19 -15 -36 -44 -60 -66 -76 -63 -75 -20 22 30 41 41 60 47 57 24 -4 -374 -746 -173 351 263 161 143 122 122 92 75 59 28 11 -19 -84 -128 -222 -275 -323 -314 -309 -255 -182 -112 -50 -5 13 21 25 41 39 44 51 58 81 98 99 108 101 96 68 60 50 81 84 147 175 191 219 215 219 216 195 198 118 -345 -545 86 448 384 310 303 296 273 254 240 194 193 141 89 48 -19 -89 -151 -182 -178 -162 -131 -92 -34 7 53 62 78 72 70 79 88 89 117 110 110 127 133 142 136 99 97 80 49 47 33 29 41 85 112 104 122 121 122 109 108 86 -5 -533 -621 -43 316 242 175 163 150 127 127 98 83 41 20 -15 -65 -142 -183 -239 -270 -279 -238 -207 -145 -94 -17 17 39 54 69 80 89 93 125 128 171 188 187 199 223 210 232 230 244 249 247 249 245 217 201 173 170 148 152 158 180 224 244 247 238 251 254 258 236 209 -205 -605 -133 402 393 320 304 278 283 267 246 207 183 147 131 71 8 -52 -106 -161 -179 -177 -140 -99 -55 0 23 54 56 69 80 70 94 97 112 127 139 138 147 155 171 164 151 150 159 139 149 131 132 131 131 118 134 114 111 122 112 101 113 106 112 118 116 117 123 95 105 109 102 102 123 106 100 101 105 91 82 86 71 67 42 14 13 37 51 70 76 98 86 91 80 47 71 -18 -451 -599 -33 335 216 119 119 105 120 94 72 17 9 -20 -54 -91 -169 -240 -302 -352 -363 -377 -388 -346 -280 -255 -216 -180 -147 -136 -122 -105 -76 -66 -43 -43 -8 -9 7 36 9 5 33 21 42 46 34 13 21 23 23 20 39 33 19 17 8 18 25 16 3 2 -22 -54 -73 -87 -82 -62 -48 1 1 9 1 -33 14 -27 -29 -299 -714 -343 225 239 100 35 41 -1 0 -6 -39 -67 -67 -130 -147 -198 -299 -358 -392 -435 -432 -435 -375 -325 -267 -227 -195 -173 -169 -148 -145 -133 -130 -115 -95 -96 -96 -82 -77 -82 -78 -87 -89 -90 -98 -84 -94 -95 -96 -138 -146 -152 -163 -197 -171 -158 -145 -102 -90 -84 -86 -89 -65 -119 -115 -249 -667 -554 24 237 100 1 9 -12 -5 -41 -49 -67 -103 -115 -149 -215 -267 -348 -387 -435 -430 -411 -363 -317 -252 -182 -127 -115 -99 -107 -88 -70 -64 -62 -48 -37 -16 -15 7 16 4 -10 -3 -42 -47 -60 -43 -26 7 44 55 75 75 67 81 54 36 -125 -629 -498 155 326 207 128 122 114 105 58 52 33 1 -33 -79 -130 -209 -284 -342 -378 -398 -360 -319 -257 -181 -137 -81 -63 -71 -61 -66 -75 -49 -39 -39 -22 -14 -2 6 14 7 -21 -23 -39 -67 -80 -62 -45 4 26 41 46 64 39 60 48 21 -39 -491 -736 -216 267 187 99 101 85 85 49 18 5 -26 -44 -98 -156 -217 -283 -346 -389 -399 -370 -335 -288 -228 -187 -137 -100 -87 -88 -73 -75 -80 -72 -61 -40 -25 5 -3 4 11 18 28 17 6 -1 -23 -39 -53 -77 -56 -37 0 34 36 55 64 20 47 38 26 -133 -679 -655 -33 225 152 100 101 77 82 65 27 10 -7 -36 
#avL[uV]
1214 2199 1004 2022 784 1792 583 1573 356 1330 101 97 79 56 48 44 26 35 38 45 51 59 61 63 59 72 82 79 86 92 69 92 68 70 68 80 65 51 35 31 7 7 20 7 24 20 4 11 14 2 -7 -6 -12 11 -36 -12 11 12 -20 -29 -31 -37 -48 -49 -76 -53 19 69 -97 -145 -2 -2 -91 -79 -89 -61 -88 -73 -78 -63 -64 -44 -33 -23 -29 -13 -51 -24 -46 -48 -63 -70 -80 -75 -80 -56 -66 -56 -81 -69 -77 -72 -89 -78 -92 -73 -88 -84 -93 -72 -96 -103 -83 -113 -109 -107 -113 -107 -104 -112 -126 -106 -124 -113 -117 -86 -104 -120 -98 -118 -116 -105 -115 -132 -60 5 -228 -169 -81 -10 -56 -98 -82 -117 -104 -89 -99 -82 -92 -90 -85 -56 -103 -75 -94 -97 -124 -124 -126 -130 -156 -148 -133 -120 -136 -104 -116 -145 -121 -121 -121 -127 -116 -98 -119 -95 -108 -102 -101 -107 -120 -127 -109 -89 -100 -63 -53 -89 -51 -41 -47 -66 -39 -66 -67 38 0 -43 -11 66 50 -16 -9 -42 -29 -39 -37 -33 -28 -28 -29 -7 -13 -26 -33 -48 -41 -50 -59 -27 -25 -25 -50 -41 -35 -43 -37 -22 -41 -28 -25 -29 -39 -25 -46 -40 -40 -49 -24 6 3 10 0 19 35 8 38 -34 -17 136 65 109 190 119 66 30 19 22 23 39 33 39 34 48 38 40 35 26 14 20 25 10 4 34 29 26 27 29 57 37 24 44 36 53 60 55 28 15 27 44 32 65 110 84 93 105 100 111 123 129 47 85 251 202 245 307 231 180 141 130 145 144 140 155 153 174 175 194 184 194 194 174 174 186 179 185 199 170 188 148 161 169 178 170 171 180 169 164 174 173 165 163 130 130 135 125 149 156 148 72 139 132 133 103 121 75 114 254 155 107 230 156 100 81 63 95 65 77 60 67 103 100 95 102 97 120 92 87 75 60 73 63 83 92 51 57 71 56 69 63 81 88 74 96 83 96 76 78 97 99 73 80 47 43 9 26 64 30 26 73 40 50 45 43 30 70 53 -22 34 225 82 30 118 88 15 0 -7 -14 -17 -22 -22 -10 -17 7 0 40 53 16 12 18 -8 -24 -15 3 -14 -7 -47 -45 -72 -45 -46 -38 -5 -32 -33 -3 -5 -31 -21 -5 -7 7 3 -5 8 -5 2 1 -10 -11 4 -15 -16 -17 -2 -24 -11 -1 13 -2 1 -3 -3 0 -2 -1 33 5 5 -4 8 13 7 -3 1 -6 -22 -31 -2 -16 -9 23 49 20 2 5 4 -3 -4 -12 -45 52 236 115 17 108 83 -2 0 -34 -5 -17 -5 -5 5 -1 29 18 32 37 61 51 67 50 38 22 31 17 18 -5 4 6 5 28 28 40 38 32 43 45 33 39 42 44 30 31 31 39 11 19 26 19 23 19 19 30 12 19 4 7 25 34 25 9 31 4 21 8 20 14 6 5 2 4 18 -8 42 54 33 -15 24 -3 14 -16 15 -27 60 283 165 -27 89 71 -3 -30 -44 -46 -41 -65 -14 -31 -31 -19 1 -4 17 9 13 -5 -12 -24 -30 -45 -53 -56 -63 -93 -84 -82 -72 -84 -70 -61 -58 -88 -65 -87 -79 -92 -80 -76 -73 -99 -93 -112 -96 -106 -97 -122 -103 -123 -84 -106 -104 -110 -102 -108 -105 -128 -101 -106 -104 -89 -54 -75 -98 -109 -71 -100 -94 -90 -108 -35 39 -162 -182 -69 -4 -47 -95 -96 -87 -83 -74 -95 -81 -63 -56 -62 -33 -41 -51 -56 -56 -70 -83 -85 -84 -104 -100 -99 -100 -104 -80 -80 -82 -88 -96 -93 -96 -86 -84 -102 -71 -104 -78 -105 -101 -101 -74 -99 -82 -117 -125 -131 -110 -121 -87 -93 -51 -89 -77 -83 -78 -78 -76 -94 -16 -4 -110 -116 33 8 -48 -58 -66 -59 -54 -69 -51 -52 -70 -44 -54 -39 -50 -60 -62 -71 -95 -87 -88 -79 -75 -56 -97 -88 -91 -59 -110 -88 -75 -87 -85 -67 -68 -83 -82 -85 -98 -90 -87 -73 -59 -80 -38 -62 -37 -29 -65 -30 -91 -86 49 -65 -10 86 86 28 -52 -30 -40 -59 -45 -61 -44 -41 -28 -49 -52 -43 -55 -71 -81 -100 -67 -61 -82 -64 -44 -42 -47 -72 -57 -50 -46 -56 -51 -50 -51 -40 -59 -89 -68 -78 -58 -87 -46 -32 -20 -2 -9 -10 -13 18 -55 -44 68 -43 98 154 100 32 -19 -20 -20 -34 -24 -38 -6 0 6 -7 -22 -20 -2 -36 -9 -23 0 -3 6 14 5 2 9 -1 8 4 12 -3 4 4 18 7 22 -15 -7 -18 -4 29 52 40 48 54 64 69 63 75 40 10 147 139 126 205 227 149 96 72 81 76 84 74 88 81 93 84 93 78 81 70 78 58 76 70 65 93 100 94 94 79 83 75 96 85 93 86 88 91 100 112 103 77 76 55 78 70 84 96 115 99 98 123 123 123 122 140 92 114 281 175 158 249 211 175 135 126 127 110 127 124 122 151 145 128 153 140 131 122 129 133 108 111 114 87 102 90 97 86 83 76 100 87 85 82 93 100 95 107 97 102 92 95 108 97 99 99 94 90 89 103 90 74 84 69 91 93 84 85 98 102 88 90 91 93 102 83 89 91 90 78 105 110 86 92 87 72 72 79 104 108 119 147 126 107 116 110 113 101 134 72 116 279 234 144 122 178 174 93 107 86 89 89 109 106 106 110 124 160 140 136 161 159 164 170 158 143 134 123 122 82 75 75 83 81 94 83 86 91 70 66 54 79 80 64 56 71 58 54 52 52 41 32 41 32 27 31 32 40 30 38 27 29 18 29 23 18 22 49 24 11 7 29 30 18 22 50 66 50 32 51 28 48 30 55 25 84 276 185 6 75 109 37 9 0 0 4 1 21 24 37 36 43 65 62 84 116 89 69 43 16 -8 -18 -21 -52 -44 -29 -35 -5 -24 6 11 -14 -11 1 26 1 0 15 -1 5 10 -5 -12 9 0 2 10 -100 -3 10 -17 -11 14 0 18 -17 0 11 11 -12 23 47 47 0 15 2 8 -5 7 -34 65 169 -32 -95 0 93 81 -29 0 15 -13 -15 15 24 46 19 52 81 84 51 58 43 38 46 50 1 8 35 32 5 27 62 64 46 39 46 50 83 60 55 63 62 68 60 48 101 73 56 57 36 39 81 19 16 33 36 56 46 57 63 50 49 50 51 41 51 4 44 130 -6 -25 52 98 82 13 15 -2 19 27 -15 -9 12 8 25 -2 0 15 -13 -28 -27 -35 -37 -61 -68 -75 -64 -92 -76 -84 -68 -80 -81 -74 -78 -77 -62 -84 -86 -119 -94 -98 -107 -107 -90 -89 -63 -102 -71 -84 -60 -64 -39 -101 -86 24 -3 -38 -18 56 27 -59 -54 -74 -44 -84 -61 -53 -50 -58 -42 -28 -49 -49 -38 -44 -64 -71 -48 -86 -70 -59 -60 -82 -82 -71 -70 -67 -75 -70 -55 -77 -66 -74 -80 -84 -88 -77 -56 -56 -26 -36 -43 -34 -34 -15 -27 -21 -64 -57 119 25 24 113 87 24 14 -19 -6 -17 -11 -28 0 13 35 17 45 26 41 27 18 20 17 -7 6 11 19 2 19 14 13 7 31 34 45 40 49 42 44 45 38 42 29 64 47 90 90 86 99 87 98 99 92 114 44 101 295 220 122 247 202 130 127 107 132 107 115 109 111 127 135 124 132 141 164 148 142 116 131 112 111 90 88 57 67 41 47 38 49 49 46 55 73 51 46 35 54 42 22 7 19 -11 20 18 41 37 22 24 41 28 46 21 18 -33 53 282 191 46 142 82 16 -11 -2 7 -7 -28 -28 -22 13 21 48 57 59 71 96 80 74 50 55 60 36 28 23 18 19 26 39 54 55 70 75 82 102 103 98 119 96 132 123 121 133 129 122 112 112 95 101 123 129 130 169 143 143 160 158 162 141 166 102 144 382 311 213 207 210 167 132 124 121 101 109 101 125 127 138 141 180 178 197 199 215 193 184 159 164 137 141 98 100 86 76 90 85 85 110 98 80 83 104 95 90 78 102 83 83 82 77 81 75 62 77 65 54 55 70 51 78 81 87 82 90 89 84 90 80 87 101 78 75 78 58 68 80 46 56 58 67 44 38 30 56 45 48 65 94 64 46 44 65 57 44 71 23 97 220 52 0 115 96 64 16 21 12 7 19 40 26 36 36 47 70 60 69 64 46 32 33 45 9 15 12 -7 -5 -10 1 -5 4 1 -8 -11 -9 -21 -14 -25 1 1 -25 -28 -20 -30 -13 -29 -24 -49 -23 -33 -53 -48 -34 -53 -40 -58 -38 -73 -47 -75 -65 -53 -42 -62 -46 -11 -39 -68 -50 -90 -50 -64 -60 -83 -39 34 -42 -117 -101 19 -11 -89 -58 -101 -73 -90 -74 -66 -63 -61 -43 -32 -19 -51 -30 -49 -69 -74 -69 -93 -91 -102 -82 -92 -89 -106 -78 -86 -91 -109 -111 -110 -114 -108 -117 -115 -125 -147 -135 -132 -132 -149 -139 -169 -149 -157 -170 -168 -168 -166 -145 -142 -113 -145 -126 -122 -116 -117 -129 -106 -136 -78 -10 -129 -103 29 -7 -60 -57 -69 -68 -83 -71 -75 -56 -65 -40 -27 -43 -20 -27 -41 -33 -34 -42 -45 -20 -41 -38 -30 -40 -34 -25 -38 -31 -23 -20 -21 -18 -16 -26 -26 -19 -42 -50 -42 -45 -50 -46 -34 -10 -17 -36 -12 -13 -16 -24 -34 -51 27 136 -6 -16 125 82 5 16 -8 -12 10 1 -19 -11 -13 0 0 14 17 14 11 5 -26 -34 -37 -50 -42 -49 -62 -46 -57 -64 -59 -74 -72 -54 -58 -59 -70 -76 -76 -62 -80 -60 -81 -73 -71 -56 -46 -26 -19 -18 -6 -20 -6 -30 -19 -66 -28 171 91 33 86 73 16 -13 -32 -29 -38 -14 -45 -28 -14 -11 -16 -13 -16 6 0 4 -24 -31 -39 -52 -39 -68 -89 -96 -113 -121 -124 -115 -102 -89 -99 -83 -88 -95 -83 -79 -79 -83 -74 -64 -102 -72 -97 -91 -73 -67 -47 -30 -63 -64 -32 -78 -64 -69 -100 -113 0 193 131 -73 14 -4 -104 -103 -94 -87 -109 -108 -92 -95 -86 
#avF[uV]
-852 -2437 -659 -2252 -446 -2021 -205 -1779 7 -1570 182 162 145 118 105 84 66 28 8 -19 -46 -70 -99 -125 -154 -165 -179 -193 -199 -210 -187 -203 -195 -198 -192 -200 -185 -157 -148 -147 -107 -112 -130 -113 -110 -134 -102 -105 -100 -100 -78 -49 -20 -31 57 28 -4 -19 -19 -31 -17 -16 19 17 44 23 74 505 608 38 -274 -145 16 10 44 21 68 74 105 114 149 170 213 261 326 353 433 433 443 387 351 311 273 240 211 176 156 143 140 111 119 104 116 91 98 91 85 76 107 87 116 107 107 123 137 139 138 122 144 165 195 196 228 222 215 171 156 140 134 131 137 124 141 169 127 319 808 429 -143 -199 -29 61 66 94 117 106 152 148 175 231 295 307 463 458 535 537 562 528 468 420 401 340 314 275 293 228 234 231 197 185 167 171 147 118 156 117 114 103 112 146 182 187 196 192 175 112 69 95 23 2 12 44 -9 53 69 224 668 303 -279 -376 -244 -72 -90 -41 -27 -14 16 40 86 102 155 211 278 359 407 425 412 372 305 219 149 105 104 91 67 87 67 39 48 20 6 -17 19 19 46 52 54 66 46 -36 -72 -96 -110 -119 -137 -99 -140 -32 26 226 504 -136 -585 -395 -253 -177 -141 -135 -119 -106 -80 -56 -22 4 67 149 231 273 304 284 230 195 125 51 -19 -59 -70 -68 -97 -91 -84 -101 -112 -138 -164 -152 -109 -85 -84 -85 -85 -134 -221 -234 -251 -286 -262 -284 -315 -324 -202 -178 12 303 -348 -824 -607 -448 -400 -388 -372 -352 -324 -313 -294 -288 -254 -203 -125 -64 -34 5 -8 -75 -142 -185 -245 -291 -346 -319 -349 -343 -344 -350 -355 -370 -380 -384 -406 -394 -371 -353 -306 -286 -277 -270 -300 -346 -371 -308 -365 -351 -344 -310 -313 -247 -163 126 302 -256 -662 -469 -328 -293 -278 -282 -234 -206 -170 -145 -165 -110 -40 26 79 112 145 138 121 60 -16 -69 -106 -168 -132 -126 -152 -137 -167 -148 -203 -223 -232 -261 -249 -277 -259 -267 -276 -295 -265 -260 -199 -179 -111 -127 -158 -109 -83 -171 -171 -194 -178 -174 -158 -201 -183 -87 -82 186 557 90 -421 -342 -170 -149 -129 -117 -79 -34 -33 -2 24 45 131 138 184 287 323 311 306 289 216 137 123 73 104 99 116 85 82 47 11 9 0 -24 -50 -43 -60 -63 -91 -108 -112 -105 -111 -89 -94 -96 -86 -74 -101 -72 -66 -49 -68 -55 -65 -69 -96 -74 -75 -64 -64 -74 -73 -68 -123 -67 -80 -64 -79 -82 -73 -48 -59 -40 -19 21 14 47 33 -6 -50 -21 -39 -35 -35 -36 -24 -7 15 10 246 639 184 -315 -251 -100 -98 -55 -85 -38 -25 -3 7 54 44 111 147 216 243 300 308 313 318 287 235 214 161 166 133 113 102 94 56 33 13 8 -5 -23 -23 -54 -35 -48 -40 -44 -47 -37 -44 -30 -34 -42 -40 -40 -42 -37 -28 -48 -17 -20 -43 -32 -29 -9 -28 -10 -31 -5 -24 -19 -10 29 40 64 66 88 15 11 -9 19 -11 10 -18 5 -19 37 27 298 574 193 -317 -208 -83 -43 -28 1 -9 43 28 56 86 128 155 225 258 319 368 397 398 392 339 320 266 251 213 216 194 193 173 161 133 140 91 113 73 98 73 80 72 77 69 86 83 98 80 113 79 119 83 118 81 97 87 93 86 116 124 159 142 183 167 151 111 106 82 95 61 93 82 49 98 75 270 756 393 -178 -229 -53 37 49 42 58 69 114 119 137 164 213 240 327 398 437 477 488 458 423 355 346 288 250 222 217 158 157 154 116 108 101 92 73 41 82 37 71 48 74 37 57 35 55 54 121 137 160 149 182 114 130 34 60 14 17 20 -1 26 77 113 509 566 -21 -378 -211 -69 -60 -48 -22 -3 23 45 64 128 127 193 263 324 403 438 437 447 369 326 226 181 144 149 139 152 115 150 136 88 97 72 44 30 69 91 107 141 163 150 132 98 70 2 5 -11 -23 16 -28 74 127 255 658 179 -392 -364 -188 -60 -83 -37 11 -3 54 46 65 109 178 255 334 403 448 451 459 373 288 230 162 90 77 69 96 89 68 59 70 57 38 35 14 59 100 88 130 96 120 29 -17 -45 -71 -78 -71 -58 -111 -12 78 273 638 24 -501 -391 -200 -133 -94 -86 -57 -47 -9 -32 9 34 125 177 270 307 339 327 322 215 162 81 13 -36 -33 -73 -48 -68 -45 -78 -65 -87 -114 -138 -98 -117 -67 -61 -34 -64 -90 -152 -190 -227 -225 -256 -267 -248 -274 -226 -146 -10 392 -27 -659 -640 -449 -342 -315 -307 -281 -290 -241 -240 -199 -184 -118 -64 22 72 124 129 109 46 -2 -73 -149 -212 -245 -255 -230 -228 -207 -234 -224 -253 -263 -277 -287 -302 -299 -305 -278 -254 -198 -196 -192 -207 -214 -312 -307 -321 -363 -378 -369 -379 -389 -317 -275 -59 360 -172 -751 -642 -482 -441 -411 -404 -370 -370 -317 -305 -297 -237 -177 -116 -38 5 62 50 12 6 -49 -110 -147 -196 -197 -210 -193 -202 -183 -211 -205 -242 -249 -263 -263 -282 -295 -307 -307 -303 -293 -308 -300 -307 -295 -297 -294 -298 -300 -281 -275 -281 -262 -281 -267 -273 -281 -270 -275 -273 -263 -264 -265 -278 -262 -266 -250 -262 -246 -258 -253 -251 -256 -238 -208 -193 -184 -187 -173 -182 -235 -230 -227 -255 -247 -267 -242 -303 -203 -254 -86 478 255 -380 -515 -421 -320 -337 -315 -305 -275 -276 -254 -225 -208 -187 -148 -92 -17 0 43 49 41 28 1 -34 -78 -94 -73 -83 -93 -108 -115 -163 -148 -162 -197 -173 -193 -186 -205 -218 -193 -201 -200 -196 -185 -184 -213 -175 -155 -162 -153 -161 -144 -153 -155 -127 -142 -135 -129 -128 -125 -114 -112 -116 -130 -99 -80 -82 -89 -46 -21 -25 -70 -118 -108 -134 -150 -139 -149 -131 -144 -117 -119 131 531 195 -345 -355 -190 -169 -163 -147 -131 -112 -88 -81 -56 -20 14 54 130 165 178 229 260 277 290 248 210 179 144 125 91 68 31 29 -13 -45 -39 -58 -83 -105 -111 -98 -107 -119 -116 -154 -119 -127 -137 -101 -108 -138 -37 -98 -119 -106 -84 -97 -79 -80 -44 -47 -38 -18 16 -35 -59 -97 -78 -107 -74 -74 -67 -116 -37 -148 56 697 286 -326 -404 -284 -93 -116 -129 -82 -61 -85 -48 -65 -13 13 29 89 190 233 271 292 251 187 201 138 61 38 16 -44 -73 -87 -103 -132 -132 -167 -227 -191 -192 -221 -225 -227 -208 -221 -276 -241 -219 -206 -187 -187 -215 -139 -112 -137 -111 -94 -120 -144 -156 -172 -191 -188 -194 -151 -181 -106 -129 75 581 138 -434 -443 -285 -156 -148 -112 -124 -94 -49 -30 2 49 68 165 241 308 371 421 409 408 353 330 277 245 198 216 218 208 182 198 183 169 168 163 117 141 155 206 193 224 259 260 220 210 139 172 110 131 111 112 60 161 192 343 778 401 -195 -250 -94 49 21 86 71 129 133 140 153 209 243 301 388 431 467 500 495 469 384 359 270 219 190 182 182 172 161 147 145 130 94 96 82 111 124 144 154 153 119 131 47 14 12 -7 -7 -45 -19 -35 40 61 255 720 149 -465 -350 -186 -158 -102 -115 -74 -63 -30 -27 -24 -16 66 83 195 233 295 295 288 238 189 106 38 -14 -15 -40 -39 -54 -46 -76 -85 -103 -121 -148 -142 -153 -147 -135 -110 -89 -114 -129 -174 -238 -262 -290 -307 -313 -319 -308 -309 -243 -219 49 325 -208 -696 -586 -440 -430 -404 -406 -361 -355 -304 -305 -268 -224 -172 -112 -51 -13 34 35 46 0 -19 -76 -98 -141 -120 -146 -114 -117 -118 -138 -138 -163 -166 -184 -178 -180 -177 -190 -141 -120 -88 -69 -36 -54 -48 -83 -123 -135 -128 -163 -149 -169 -131 -126 -52 -47 251 430 -2 -458 -324 -192 -152 -148 -135 -120 -69 -55 -18 -34 -6 17 84 124 167 174 198 163 156 89 33 -18 -46 -63 -72 -89 -106 -128 -147 -181 -199 -246 -271 -290 -303 -321 -329 -329 -363 -367 -371 -380 -379 -368 -330 -314 -269 -272 -272 -282 -289 -350 -367 -388 -407 -397 -413 -396 -425 -339 -354 -176 293 -79 -609 -604 -487 -436 -403 -404 -369 -356 -308 -308 -274 -270 -212 -189 -126 -91 -37 -36 -16 -44 -59 -109 -136 -164 -153 -157 -155 -157 -160 -179 -182 -222 -225 -219 -221 -251 -251 -262 -242 -253 -233 -243 -222 -226 -213 -208 -194 -209 -184 -188 -169 -181 -173 -190 -183 -201 -189 -202 -207 -201 -208 -204 -182 -206 -188 -177 -180 -182 -174 -181 -147 -162 -149 -149 -130 -110 -98 -99 -60 -62 -102 -146 -135 -122 -142 -151 -148 -125 -119 -95 -78 231 547 33 -450 -313 -184 -136 -126 -133 -101 -91 -58 -35 -16 17 43 99 179 233 288 316 344 354 300 270 240 204 188 152 146 121 111 72 65 52 54 18 31 7 -11 -10 -7 -8 6 -22 -15 -21 15 3 26 0 13 13 14 15 36 31 40 12 57 44 72 88 107 116 150 128 74 88 67 48 80 48 98 46 111 69 265 756 461 -124 -259 -89 54 16 103 72 97 114 133 131 192 191 231 318 409 422 485 502 509 445 419 359 329 278 266 259 254 224 220 222 225 206 207 210 191 195 198 204 235 224 223 231 234 234 264 246 296 316 320 331 364 317 300 259 248 217 206 203 207 194 225 251 328 677 683 78 -266 -92 59 47 81 74 125 120 142 160 180 189 242 311 369 414 476 463 445 406 362 272 223 166 145 139 142 113 108 95 85 69 59 34 32 18 10 15 52 53 84 93 110 89 60 2 -26 -18 -62 -62 -50 -56 -19 15 97 492 505 -139 -451 -290 -134 -139 -105 -92 -69 -53 -14 10 47 79 130 195 267 328 367 392 386 353 295 231 180 130 125 117 118 130 135 124 111 93 81 73 73 69 61 54 102 83 121 140 151 118 92 22 -7 -22 -39 -44 -32 -30 -28 44 68 319 644 182 -353 -261 -115 -88 -53 -55 -10 -3 39 55 58 109 172 231 300 339 390 395 395 366 328 280 226 206 189 183 202 194 200 195 175 151 139 109 83 98 78 67 61 55 56 58 103 96 136 144 151 124 85 29 29 27 -23 14 43 22 62 87 132 485 523 107 -240 -148 3 1 17 5 44 80 81 103 122 
