ADC Sampling rate (Hz):
100
Fragment duration (sec):
21
Number of samples exported by each lead:
2099

#I[uV]
4043 4324 3273 3478 2456 2689 1660 1923 814 1053 14 26 21 29 30 21 13 29 29 44 27 25 22 36 27 43 23 53 21 51 48 103 87 38 39 29 51 40 32 83 40 64 144 375 502 -69 -271 -29 19 68 74 86 96 110 120 130 143 127 157 181 177 212 258 270 304 388 377 430 417 415 375 295 190 114 77 52 24 48 35 49 37 56 44 78 70 34 35 70 62 77 59 63 65 61 71 70 69 78 66 77 65 75 77 84 70 91 84 97 64 74 82 73 58 81 57 71 69 57 59 61 70 63 55 58 73 56 47 73 70 59 57 82 74 89 162 114 48 63 53 53 52 51 47 48 73 184 455 307 -97 -120 -25 50 62 71 89 86 85 117 126 117 128 138 158 186 175 248 278 298 331 367 401 395 358 313 194 108 67 17 -11 9 -25 -6 -6 -5 -23 4 -9 -8 20 2 -5 4 0 -5 5 21 15 15 14 8 19 20 30 17 13 12 9 26 1 2 -1 6 -4 -6 8 4 -6 -1 0 -10 -18 -14 -23 -9 -10 -10 -20 -19 -29 12 -36 -21 4 -33 -17 -17 8 40 47 5 -21 -22 -24 -23 -43 -26 -48 -13 21 223 452 -14 -277 -136 -78 -26 -25 -19 -3 -8 0 23 10 12 37 56 55 91 118 130 183 221 270 295 311 312 257 180 57 16 -32 -98 -116 -110 -112 -113 -106 -119 -102 -105 -120 -119 -108 -105 -127 -105 -116 -107 -118 -122 -121 -127 -126 -135 -141 -121 -110 -113 -124 -123 -103 -114 -116 -126 -130 -127 -106 -114 -131 -115 -116 -105 -111 -123 -122 -112 -119 -117 -114 -74 -106 -123 -110 -110 -106 -80 -28 -55 -101 -109 -106 -123 -120 -131 -118 -145 -91 -45 194 353 -237 -462 -215 -163 -117 -126 -104 -89 -86 -82 -54 -48 -72 -32 -22 0 35 61 95 143 182 225 258 279 246 215 119 16 -64 -116 -144 -149 -156 -167 -186 -154 -169 -154 -142 -167 -166 -166 -172 -150 -177 -151 -162 -159 -168 -165 -134 -164 -177 -139 -148 -155 -146 -148 -152 -133 -121 -145 -129 -124 -146 -123 -130 -129 -130 -112 -129 -122 -105 -105 -113 -87 -87 -61 -46 -61 -100 -113 -103 -103 -109 -88 -113 -93 -45 109 391 -37 -478 -300 -141 -90 -86 -90 -71 -70 -59 -56 -37 -16 -12 -7 26 37 97 103 152 200 229 290 284 298 272 183 74 4 -77 -112 -122 -141 -119 -111 -129 -107 -130 -117 -103 -102 -91 -105 -105 -101 -93 -93 -105 -77 -100 -98 -100 -81 -113 -116 -83 -112 -92 -95 -72 -94 -97 -71 -96 -83 -63 -70 -56 -56 -62 -46 -55 -48 -11 25 -15 -62 -51 -43 -45 -56 -71 -65 -67 -9 77 400 283 -251 -230 -91 -57 -17 -22 -9 17 15 28 30 39 62 84 70 107 125 167 192 259 307 325 348 339 320 246 155 69 8 -11 -29 -36 -41 -59 -34 -23 -47 -25 -48 -40 -6 -15 -23 -19 3 -13 -18 -14 -26 -23 -21 -15 -16 -22 -20 -8 -31 -15 -6 -18 -1 3 -17 1 0 -3 0 3 17 -18 26 16 7 33 22 24 62 82 46 31 10 8 11 20 10 -13 27 94 284 490 33 -235 -78 -14 23 18 40 49 54 49 63 56 85 81 113 98 136 180 207 255 259 317 344 358 370 303 225 144 39 15 -9 -56 -32 -31 -41 -28 -23 -47 -40 -2 -21 -15 -10 -22 -19 -19 -16 -16 -6 -23 -17 -2 -12 -4 2 5 -7 3 3 -9 33 2 3 25 11 14 14 6 14 23 9 7 7 10 20 18 13 18 35 31 26 21 47 99 84 16 22 16 -4 10 -17 -11 -12 8 112 408 459 -93 -198 -70 7 35 34 47 56 66 57 102 58 70 109 126 137 150 181 203 241 285 344 346 359 344 287 188 109 46 -12 -25 -40 -41 -43 -42 -50 -42 -3 -27 -40 -35 -32 -38 -28 -28 -38 -33 -22 -31 -38 -42 -40 -31 -38 -55 -19 -38 -38 -28 -40 -29 -29 -31 -43 -19 -20 -34 -32 -21 -19 -30 -33 -33 -13 1 -36 -22 -21 -3 -16 -29 -25 -15 8 -17 39 22 -33 -19 -44 -44 -51 -51 -44 -80 -46 40 326 377 -241 -361 -151 -95 -37 -40 -18 -6 7 -20 -13 12 22 22 68 70 81 119 165 206 224 264 300 312 311 242 159 66 1 -45 -91 -110 -95 -96 -108 -114 -72 -72 -70 -79 -63 -75 -60 -66 -81 -58 -87 -88 -88 -71 -72 -83 -91 -98 -83 -85 -76 -67 -77 -90 -99 -71 -61 -78 -89 -82 -81 -64 -80 -91 -90 -89 -79 -62 -80 -89 -68 -79 -46 -6 -30 -68 -85 -83 -93 -66 -98 -90 -105 -66 9 305 315 -257 -353 -158 -127 -43 -74 -58 -58 -30 -44 -43 -46 -46 -17 20 9 37 60 125 139 221 257 244 271 273 191 104 -1 -73 -99 -119 -141 -136 -147 -133 -146 -124 -144 -108 -111 -116 -123 -119 -131 -107 -138 -107 -118 -128 -131 -125 -113 -101 -124 -106 -114 -96 -126 -117 -115 -98 -107 -91 -116 -104 -86 -125 -113 -88 -110 -128 -104 -114 -110 -90 -115 -109 -133 -111 -113 -106 -98 -109 -95 -105 -99 -95 -83 -28 -22 -62 -111 -105 -105 -120 -107 -80 -130 -96 -49 141 359 -15 -284 -188 -140 -63 -81 -71 -71 -58 -52 -55 -46 -18 -25 -11 2 36 42 95 129 170 192 206 235 235 210 119 44 -29 -85 -110 -155 -132 -134 -149 -134 -129 -137 -126 -118 -115 -119 -121 -110 -84 -117 -107 -97 -121 -101 -79 -103 -81 -91 -118 -105 -94 -89 -89 -86 -82 -116 -85 -97 -104 -105 -73 -86 -80 -92 -93 -94 -72 -75 -91 -80 -78 -65 -76 -99 -63 -76 -73 -81 -86 -82 -79 -68 -67 -82 -60 -52 -39 -63 -39 -26 -48 -27 33 16 -47 -54 -39 -48 -32 -66 -46 -69 -16 95 370 368 -111 -248 -96 -70 -6 -44 4 13 5 19 28 19 46 55 94 84 123 155 165 207 261 269 331 341 316 279 188 86 52 -12 -46 -35 -46 -58 -48 -53 -28 -34 -33 -23 -11 -21 -7 -48 -7 0 -12 -34 -27 0 -17 -11 -17 -20 -9 -20 3 -12 -28 -23 -10 -13 1 -29 -43 -30 -20 -8 -16 -19 -17 -28 -5 -34 -4 1 -18 -10 -20 -12 4 -21 15 12 13 5 6 5 42 95 56 -23 -4 -17 -17 -17 -11 -32 -23 15 174 400 135 -273 -192 -110 -24 -27 -3 21 16 30 32 53 43 48 69 101 126 158 176 222 270 306 323 357 372 314 270 172 89 7 -35 -46 -55 -86 -83 -68 -76 -104 -55 -59 -53 -35 -36 -53 -48 -62 -50 -51 -40 -38 -52 -53 -47 -62 -51 -41 -51 -41 -46 -40 -39 -39 -55 -58 -19 -57 -34 -40 -49 -26 -14 -25 -3 -15 -12 -3 -15 -6 10 7 10 16 30 46 101 15 20 16 4 37 0 -8 -29 15 77 251 487 47 -219 -97 -44 15 17 38 22 25 56 66 62 62 86 99 108 131 155 172 225 268 295 346 364 343 312 233 131 62 0 -16 -22 -38 -54 -50 -68 -50 -37 -38 -23 -28 -8 -8 -38 -20 -6 5 -15 -26 -27 -4 -5 -29 -3 -19 -13 -2 -2 -13 -4 -15 4 -6 -7 2 0 42 9 -15 9 0 7 8 19 15 30 16 40 42 36 23 26 53 65 32 70 107 97 46 40 42 37 41 37 40 21 44 168 481 389 -82 -137 -40 43 72 62 61 66 100 102 104 104 131 133 131 163 198 229 252 296 319 369 384 395 374 326 221 126 82 32 -15 -3 0 -12 -10 11 -24 -15 -19 3 3 -6 -11 -4 -22 16 -17 -15 -14 -11 -13 -17 -29 -15 -13 0 -30 -27 -29 -38 -18 -16 -5 -13 -10 -9 -5 -10 -36 -11 -14 -15 14 -20 -20 -6 -23 -9 -12 -18 -11 -18 5 -16 -5 38 70 23 -29 -24 -11 -24 -49 -24 -44 -39 2 170 474 82 -270 -171 -88 -32 -22 -6 1 7 8 12 18 37 42 53 87 96 122 162 205 253 284 302 321 319 284 243 124 35 -21 -44 -88 -79 -71 -84 -97 -68 -83 -56 -61 -61 -58 -34 -42 -48 -80 -48 -40 -41 -80 -68 -65 -53 -59 -59 -71 -58 -63 -72 -56 -74 -73 -61 -76 -51 -74 -73 -54 -46 -80 -79 -70 -50 -41 -71 -61 -36 -68 -31 -23 -49 2 15 -44 -67 -67 -70 -73 -83 -86 -101 -44 48 307 332 -293 -408 -166 -97 -60 -57 -26 -38 -20 -18 -16 -5 -11 19 33 43 70 103 150 177 216 250 277 324 283 255 170 65 -11 -69 -83 -95 -106 -83 -120 -106 -99 -114 -92 -85 -108 -81 -96 -93 -86 -78 -88 -89 -83 -80 -79 -79 -81 -93 -72 -59 -79 -56 -54 -58 -55 -66 -52 -52 -46 -56 -85 -29 -25 -37 -31 -36 -19 10 31 11 -40 -42 -29 -50 -62 -47 -66 -53 -10 147 443 119 -244 -180 -94 -8 -13 1 13 21 17 28 32 48 60 63 77 100 123 144 187 213 276 338 317 323 285 208 102 18 -43 -68 -88 -86 -99 -103 -101 -89 -76 -82 -74 -60 -67 -68 -84 -55 -66 -70 -59 -46 -70 -64 -76 -64 -73 -105 -91 -75 -94 -67 -80 -77 -84 -78 -75 -71 -106 -78 -87 -58 -68 -65 -68 -77 -50 -50 -76 -68 -42 -53 -23 30 -6 -17 -73 -74 -66 -73 -88 -76 -90 -62 63 316 351 -160 -256 -120 -85 -53 -31 -34 -40 -7 -10 -19 -8 -6 28 48 47 81 103 140 176 193 235 287 291 265 227 133 20 -29 -90 -83 -114 -94 -113 -117 -103 -100 -87 -87 -85 -75 -88 -77 -82 -82 -73 -63 -74 -74 -72 -66 -72 -73 -92 -63 -53 -71 -72 -62 -66 -48 -52 -46 -48 -59 -53 -56 -55 -55 -33 -46 -48 -30 -37 -15 -9 -17 40 58 0 -11 -11 -20 -28 -29 -18 -25 -12 52 243 490 66 -240 -90 -25 5 18 19 23 49 67 56 79 77 97 116 137 154 186 200 223 300 347 370 367 368 342 242 152 63 47 -21 -24 -31 -31 -20 -29 -7 -16 -2 0 -20 7 4 -2 -14 -1 -5 5 -5 -5 -14 -16 -19 -1 -4 -2 17 -6 -4 -2 -10 -11 1 0 -15 -22 -25 -17 -5 -30 4 -12 -31 -8 24 48 14 -22 -7 -31 -29 -9 -29 -35 25 60 284 446 -65 -351 -115 -42 9 25 27 39 41 31 42 86 77 102 124 140 162 191 203 268 297 352 389 400 390 354 250 168 82 46 29 9 -20 -17 0 -13 -2 23 17 23 13 36 21 24 37 10 24 26 31 34 35 35 48 45 55 50 74 59 57 66 72 106 89 88 106 129 124 132 190 188 170 102 109 123 103 107 104 110 124 189 331 567 259 -129 -4 100 138 167 202 164 171 199 198 222 232 242 258 282 313 341 372 409 466 505 546 555 569 554 451 330 254 196 205 171 152 175 173 176 178 189 205 192 215 200 
#II[uV]
-2997 -3856 -2370 -3243 -1806 -2654 -1190 -2042 -643 -1455 -49 -61 -51 -61 -48 -69 -49 -50 -36 -36 -39 -52 -42 -54 -42 -14 20 37 58 88 122 92 81 2 -54 -65 -65 -76 -72 -41 -78 -86 -100 174 786 519 172 116 14 -26 -65 -66 -54 -41 -32 -21 1 -29 9 33 44 66 112 114 172 256 281 339 375 386 390 299 218 90 43 -18 -33 -32 -34 -46 -36 -35 -39 -29 -3 -65 -50 -39 -26 -35 -29 -52 -40 -60 -39 -68 -57 -60 -59 -70 -59 -59 -47 -58 -58 -58 -41 -50 -50 -64 -28 -60 -59 -50 -61 -61 -49 -60 -60 -58 -39 -49 -56 -56 -30 -57 -37 -23 26 38 37 71 108 76 113 24 -52 -78 -78 -94 -94 -108 -64 -105 -66 -74 405 934 446 26 44 -55 -44 -83 -55 -68 -56 -45 -21 -20 2 0 43 31 54 112 155 183 258 292 375 357 375 341 250 125 55 -20 -46 -63 -75 -77 -74 -73 -70 -64 -53 -63 -23 -62 -52 -52 -40 -50 -49 -33 -46 -46 -48 -59 -48 -58 -47 -60 -50 -50 -50 -39 -51 -53 -40 -62 -51 -63 -50 -65 -64 -72 -52 -63 -63 -66 -54 -56 -53 -53 -45 -46 -45 -36 -42 -33 59 21 55 68 104 90 64 -9 -62 -83 -82 -95 -85 -94 -81 -91 -94 77 702 686 237 81 42 -36 -75 -84 -72 -72 -49 -37 -19 -31 1 17 30 43 89 86 161 200 272 325 363 374 381 315 181 115 42 -43 -72 -78 -78 -101 -104 -106 -94 -95 -86 -108 -83 -93 -93 -88 -86 -89 -100 -102 -89 -99 -110 -121 -127 -114 -104 -117 -111 -111 -82 -116 -105 -129 -106 -116 -94 -102 -102 -103 -107 -97 -97 -109 -97 -106 -88 -89 -87 -62 -44 -25 0 -12 40 77 63 37 -39 -99 -95 -116 -98 -119 -96 -122 -74 -129 144 776 475 116 99 -22 -48 -112 -84 -95 -91 -103 -89 -65 -64 -38 -22 -8 10 49 96 120 188 243 306 341 353 353 268 165 72 -13 -41 -64 -66 -89 -88 -67 -77 -69 -80 -92 -49 -103 -77 -77 -69 -82 -67 -81 -93 -92 -38 -80 -79 -57 -58 -69 -74 -58 -58 -67 -32 -90 -47 -59 -59 -58 -69 -69 -72 -51 -39 -50 17 28 51 91 105 117 92 22 -10 -38 -53 -66 -44 -47 -20 -49 -44 56 575 813 418 137 37 25 -6 -21 -20 -13 10 14 47 47 78 68 100 112 134 171 245 279 334 383 422 446 432 394 292 217 111 51 31 -12 -16 8 -4 6 6 -14 -7 17 17 3 15 7 15 2 -5 -5 -3 -16 1 7 -12 -26 -24 -23 9 -20 -12 -8 -7 4 -8 -8 8 7 8 66 78 104 105 137 161 135 74 2 -21 -51 -51 -38 -75 -41 -68 -26 -45 377 975 512 54 62 -1 -15 -44 -45 -8 -13 -38 -8 15 13 38 49 100 111 131 186 250 281 343 392 429 429 393 291 194 88 -1 5 0 -32 -33 -33 -36 -39 -16 -38 -38 -28 -12 -34 -20 -21 -55 -61 -40 -52 -54 -54 -48 -59 -49 -49 -93 -92 -58 -60 -62 -59 -46 -67 -57 -71 -45 -45 -45 -34 -59 -6 31 46 71 84 105 93 67 7 -64 -74 -86 -97 -73 -109 -94 -97 -110 113 681 714 191 71 31 -46 -68 -81 -92 -80 -56 -57 -53 -25 -15 -15 -8 27 44 110 161 180 253 301 325 337 347 275 130 48 -26 -61 -106 -106 -108 -120 -134 -112 -122 -133 -83 -126 -157 -120 -120 -120 -121 -131 -131 -121 -151 -146 -136 -136 -146 -148 -138 -138 -138 -138 -150 -141 -130 -130 -130 -147 -130 -119 -130 -151 -131 -132 -132 -132 -120 -122 -147 -126 -77 -32 -55 -43 18 31 19 -7 -91 -129 -142 -160 -133 -174 -142 -167 -145 -179 154 838 520 13 -64 -71 -88 -133 -107 -120 -137 -88 -81 -88 -95 -67 -42 -31 4 23 55 83 143 225 250 287 298 272 201 88 -27 -64 -100 -131 -168 -139 -139 -155 -137 -115 -120 -121 -117 -129 -117 -126 -114 -113 -114 -127 -154 -143 -132 -143 -121 -131 -147 -136 -128 -128 -127 -116 -104 -104 -108 -108 -97 -109 -109 -121 -102 -90 -90 -90 -101 -81 -68 -105 -79 -78 -100 -48 -12 -2 32 69 56 67 30 -60 -103 -103 -116 -105 -125 -92 -145 -110 -164 177 836 423 118 83 -38 -62 -108 -64 -73 -60 -72 -70 -44 -21 -9 6 34 34 19 91 158 186 236 294 328 359 348 250 158 75 -25 -67 -79 -79 -69 -96 -85 -68 -104 -62 -50 -57 -57 -75 -80 -57 -34 -76 -63 -67 -65 -68 -65 -64 -74 -66 -67 -84 -47 -46 -69 -54 -44 -55 -40 -52 -18 -31 -50 -29 -41 -49 -37 -51 7 18 31 73 108 108 67 51 -26 -63 -77 -78 -66 -108 -72 -99 -75 -101 239 918 497 131 105 -6 0 -46 -44 -56 -54 -27 -17 -7 -9 20 42 54 53 110 134 194 236 320 348 402 414 375 290 181 71 22 -30 -51 -62 -59 -88 -87 -52 -52 -71 -36 -61 -50 -53 -45 -49 -64 -56 -43 -83 -79 -63 -51 -50 -62 -46 -41 -51 -40 -39 -15 -28 -38 -24 -38 -25 -14 -49 -12 -12 -22 -29 -35 -21 -8 -18 -25 -26 -46 -2 -15 -10 -10 4 63 46 90 117 140 142 119 44 -46 -46 -45 -66 -40 -49 -48 -81 -27 112 693 838 281 96 95 9 -8 -33 -10 -10 10 10 34 41 52 41 84 94 139 179 204 262 318 352 407 419 430 366 265 164 81 20 -34 -33 -33 -69 -44 -44 -47 -30 -20 -20 -20 -30 -14 -1 -22 -34 -10 -34 -23 -23 -34 -36 -21 -47 -34 -37 -22 -9 -20 -17 -15 -12 -12 -30 -19 -9 -18 -18 -20 -20 -19 -19 -8 -25 -25 -21 -20 -31 -42 -9 -18 -5 -13 -29 -30 -34 -24 -22 -34 -23 -23 24 49 61 93 106 129 120 82 -10 -32 -54 -47 -49 -60 -56 -58 -45 -65 312 1008 638 107 81 35 -12 -23 -16 4 -12 18 16 26 26 49 72 72 99 142 153 197 253 299 361 412 413 405 313 224 129 61 -13 2 -49 -49 -48 -48 -37 -30 -28 -17 -28 -15 -28 -33 -45 -12 -24 -39 -35 -19 -39 -18 -35 -20 -20 -21 -8 -29 -42 -27 -25 -27 -12 -44 -58 -44 -42 -30 -53 -30 -38 -49 -45 -59 -47 -23 -55 -34 -58 -47 -55 -46 -36 9 22 30 43 90 94 97 24 -62 -85 -87 -111 -73 -108 -85 -135 -100 -49 386 802 430 57 8 -37 -83 -102 -77 -84 -62 -62 -40 -51 -31 -9 21 35 73 83 126 176 236 269 320 357 357 323 237 131 40 -38 -60 -92 -102 -113 -101 -109 -126 -96 -94 -107 -79 -93 -97 -110 -120 -108 -108 -97 -99 -113 -113 -110 -111 -111 -96 -106 -86 -83 -77 -89 -89 -89 -91 -86 -84 -86 -77 -101 -77 -77 -77 -77 -67 -78 -68 -81 -45 -5 16 26 77 77 78 60 -25 -87 -92 -118 -93 -124 -134 -128 -115 -115 75 609 686 191 32 -15 -67 -107 -89 -115 -110 -94 -79 -80 -53 -43 -20 -17 17 27 53 106 172 208 265 319 332 338 285 161 57 -42 -82 -100 -118 -130 -130 -147 -136 -135 -125 -126 -126 -118 -118 -136 -129 -119 -119 -130 -130 -149 -113 -136 -135 -124 -112 -122 -111 -123 -123 -113 -103 -103 -99 -114 -79 -95 -76 -90 -79 -89 -75 -95 -71 -81 -77 -71 -71 -73 -49 -68 -11 4 40 39 70 70 73 26 -38 -92 -90 -107 -107 -123 -92 -134 -95 -114 323 970 534 20 14 -39 -34 -79 -66 -76 -46 -35 -31 -20 5 4 3 34 80 103 140 212 261 305 360 385 401 386 297 167 111 10 -24 -48 -34 -57 -55 -55 -65 -78 -65 -53 -51 -75 -52 -67 -64 -63 -81 -80 -70 -70 -70 -80 -80 -67 -65 -65 -74 -75 -77 -88 -55 -59 -59 -69 -36 -51 -49 -49 -59 -44 -37 -37 -9 -31 -32 -30 -44 -32 -22 -20 34 51 68 79 124 123 94 26 -40 -66 -53 -88 -89 -89 -75 -108 -99 20 539 720 317 58 17 -37 -66 -80 -73 -83 -60 -60 -43 -44 -18 -18 4 13 48 76 128 162 229 254 299 320 352 315 243 77 22 -34 -61 -106 -93 -119 -92 -91 -91 -93 -65 -88 -78 -88 -69 -98 -85 -84 -61 -86 -106 -116 -93 -95 -102 -112 -99 -110 -100 -120 -84 -123 -125 -114 -104 -104 -101 -113 -102 -99 -114 -129 -118 -108 -96 -109 -65 -28 -23 2 83 68 27 12 -53 -115 -116 -139 -113 -157 -124 -163 -90 -167 241 911 405 100 88 -54 -26 -101 -68 -96 -74 -72 -47 -47 -51 -22 15 27 39 75 133 157 214 261 310 358 379 367 311 195 104 39 -18 -41 -29 -30 -27 -37 -6 -45 -35 -24 -25 -25 -13 -35 -25 -16 -12 -36 -33 -33 -8 -20 -39 -39 -16 -13 -24 -2 -23 -23 -18 -30 -10 -10 -4 -14 -30 9 34 70 86 122 144 134 109 56 -37 -50 -36 -61 -49 -72 -51 -76 -43 39 545 888 434 108 67 42 -2 -35 -2 -4 7 4 33 33 44 45 81 81 124 134 195 217 294 367 390 410 423 323 254 117 56 -4 -26 -50 -62 -78 -67 -78 -55 -57 -35 -35 -19 -46 -51 -51 -25 -58 -31 -43 -43 -60 -60 -60 -56 -88 -60 -63 -62 -60 -49 -60 -45 -67 -51 -65 -51 -73 -51 -46 -46 -55 -43 -53 -28 -5 29 29 71 63 104 77 39 -10 -90 -98 -92 -111 -113 -101 -111 -111 -112 258 991 591 50 35 -10 -44 -57 -64 -80 -47 -33 -35 -10 -9 23 33 46 68 105 141 207 225 291 351 380 399 363 279 165 66 5 -48 -71 -72 -84 -95 -71 -84 -87 -67 -54 -67 -65 -65 -69 -73 -55 -66 -66 -79 -66 -91 -79 -94 -87 -87 -87 -95 -84 -84 -66 -70 -58 -69 -58 -72 -72 -71 -49 -59 -27 -72 -24 15 25 36 68 81 94 74 0 -79 -78 -112 -122 -99 -108 -93 -94 -93 105 682 677 182 79 19 -68 -79 -78 -89 -67 -55 -55 -44 -34 -23 0 9 22 54 78 99 178 230 267 312 337 348 286 181 78 26 -55 -70 -88 -88 -88 -88 -78 -87 -76 -63 -57 -57 -57 -58 -42 -56 -56 -73 -93 -73 -73 -86 -89 -85 -88 -88 -60 -71 -70 -62 -67 -67 -81 -72 -59 -65 -67 -67 -34 -34 2 20 59 82 67 53 -20 -68 -71 -95 -96 -74 -92 -99 -86 -113 176 695 561 308 163 12 23 -24 -24 -24 -11 -20 2 14 56 47 54 65 94 130 157 201 271 310 377 401 431 431 360 264 176 98 18 26 26 6 24 0 22 33 44 32 30 42 42 28 43 15 27 28 17 17 18 10 7 15 26 13 13 38 54 37 31 64 68 103 147 147 173 184 170 146 71 -9 -22 -29 -36 -46 -59 -25 -46 -21 88 595 847 367 112 107 45 -9 1 -8 18 37 37 59 42 92 103 127 158 183 219 241 312 362 430 449 450 474 394 270 179 97 77 32 3 3 -19 -2 9 9 23 2 -12 15 
#III[uV]
-7041 -8180 -5643 -6722 -4263 -5344 -2850 -3965 -1458 -2508 -64 -87 -73 -91 -78 -90 -63 -79 -65 -80 -66 -77 -65 -91 -69 -58 -2 -16 36 36 73 -11 -6 -35 -94 -94 -117 -116 -104 -125 -119 -150 -245 -200 284 588 444 146 -5 -94 -139 -152 -151 -151 -153 -152 -141 -157 -147 -147 -133 -145 -145 -155 -131 -131 -96 -90 -42 -28 15 4 28 -24 -33 -71 -58 -80 -69 -96 -74 -91 -84 -108 -73 -100 -85 -110 -88 -113 -89 -116 -106 -122 -110 -139 -127 -139 -125 -147 -124 -135 -125 -142 -129 -149 -125 -147 -114 -138 -111 -133 -118 -131 -119 -133 -118 -118 -119 -119 -109 -113 -112 -114 -103 -114 -85 -97 -44 -21 -20 -10 33 -13 -49 -89 -101 -142 -131 -147 -147 -159 -112 -153 -139 -259 -50 626 544 146 69 -106 -107 -155 -144 -155 -141 -162 -148 -138 -126 -139 -115 -154 -121 -136 -123 -114 -72 -75 -26 -37 16 28 55 17 -11 -38 -35 -72 -49 -71 -68 -68 -47 -68 -44 -54 -44 -64 -47 -57 -41 -44 -54 -54 -62 -62 -62 -67 -67 -78 -78 -78 -64 -63 -60 -65 -53 -55 -38 -68 -47 -57 -58 -69 -57 -70 -53 -52 -44 -52 -30 -46 -43 -42 -25 -27 -16 -48 -5 -12 54 54 73 85 95 50 17 -14 -40 -61 -58 -72 -42 -67 -32 -77 -116 -145 250 701 514 217 121 -10 -49 -64 -69 -63 -50 -60 -30 -44 -35 -38 -25 -48 -28 -43 -21 -21 1 29 52 61 124 135 124 98 75 54 43 31 34 11 1 12 8 9 33 10 25 12 33 16 29 17 17 20 31 28 16 13 14 6 6 -3 13 11 21 -2 10 -2 24 10 12 12 29 12 8 8 14 14 25 5 30 27 26 11 62 97 109 98 146 158 91 92 61 9 11 7 21 11 22 22 16 -84 -50 423 712 579 315 141 68 14 19 -5 -5 -21 -35 -17 7 -6 0 -9 -25 -11 0 -22 6 18 47 62 106 138 148 148 137 102 103 84 89 78 97 87 91 85 62 74 116 63 94 72 107 68 94 77 74 73 95 83 97 82 89 85 72 90 93 66 89 54 82 65 86 64 60 59 57 61 90 71 122 134 164 179 192 179 139 83 89 75 49 37 65 41 92 43 1 -52 183 850 896 438 179 116 80 69 50 56 70 70 85 64 90 76 73 74 36 67 92 78 104 93 137 147 159 211 218 212 188 163 154 128 102 120 124 114 137 102 95 119 109 109 120 108 108 96 99 72 96 82 102 89 101 90 58 88 102 75 60 86 90 75 87 74 72 78 65 123 140 150 161 186 173 109 89 65 29 -8 -5 18 -4 23 -1 -17 -122 -23 691 763 285 153 55 1 -22 -35 -26 -28 -67 -39 -24 -49 -46 -20 -7 -13 -35 -6 -8 -26 17 44 89 108 147 136 125 79 9 35 35 8 25 0 -12 8 8 10 1 -22 3 -10 -1 -24 -41 -43 -25 -25 -30 -32 -32 -42 -27 -29 -84 -61 -43 -54 -44 -58 -49 -49 -59 -70 -42 -45 -49 -51 -41 -32 15 38 38 62 80 30 -15 -39 -96 -85 -95 -108 -93 -119 -80 -124 -205 -170 191 681 427 150 46 -69 -87 -122 -141 -135 -105 -120 -109 -111 -96 -129 -106 -109 -135 -96 -93 -79 -63 -42 -32 -33 43 49 -13 8 -42 -51 -50 -74 -77 -78 -106 -89 -75 -92 -80 -104 -142 -110 -98 -101 -101 -115 -115 -115 -127 -128 -133 -123 -141 -151 -144 -131 -142 -142 -140 -175 -132 -133 -155 -158 -145 -134 -136 -166 -154 -142 -140 -140 -130 -142 -166 -139 -95 -67 -86 -70 -2 -16 -79 -91 -107 -151 -159 -155 -144 -157 -131 -154 -154 -291 -253 378 614 211 6 -78 -123 -167 -154 -176 -203 -146 -183 -147 -166 -176 -169 -169 -145 -158 -147 -158 -141 -119 -95 -72 -46 -14 12 -21 -73 -52 -74 -90 -127 -96 -97 -105 -95 -111 -92 -81 -81 -97 -79 -98 -85 -74 -81 -104 -122 -105 -89 -103 -90 -93 -91 -116 -89 -89 -98 -75 -75 -75 -76 -64 -77 -89 -75 -89 -81 -71 -60 -56 -67 -67 -69 -69 -56 -57 -97 -32 16 23 48 61 74 27 7 -27 -83 -58 -72 -53 -73 -48 -65 -64 -204 -148 459 665 479 235 56 -25 -68 -45 -67 -67 -52 -56 -57 -44 -31 -61 -36 -47 -100 -74 -48 -38 -28 -6 16 48 106 91 91 74 19 23 30 15 27 12 29 4 -31 7 29 5 17 -14 -13 23 23 10 24 21 5 4 17 26 23 17 17 -7 20 30 20 44 27 5 37 36 63 50 14 50 49 40 51 27 70 98 120 141 187 154 74 82 42 21 6 15 0 -9 18 5 -9 -110 -65 603 755 484 263 121 43 27 13 1 -23 17 25 38 36 38 21 44 15 50 8 54 14 62 103 131 141 184 185 183 144 122 89 89 74 88 44 58 71 92 37 75 54 72 65 85 58 73 50 74 44 52 62 62 51 62 59 73 44 86 77 99 70 68 67 78 79 71 75 101 76 88 98 69 92 102 71 90 82 87 108 97 96 88 114 159 152 189 213 224 170 141 106 64 59 59 54 67 30 82 14 21 -28 334 853 566 285 236 72 72 37 61 48 63 66 81 59 77 53 81 58 96 83 75 91 125 145 171 184 220 246 220 193 166 131 121 98 100 79 89 84 90 96 98 95 99 90 96 83 94 72 86 86 77 55 69 45 69 70 70 56 67 79 66 64 101 72 85 74 86 63 67 62 72 72 75 53 66 66 55 57 45 45 56 53 57 67 68 57 52 44 44 44 47 36 29 63 112 101 120 155 157 87 66 37 21 -15 1 -17 5 -9 11 -29 -161 -58 640 749 355 178 105 -6 21 -21 -8 -17 0 -12 6 -20 -6 -21 -11 -24 -12 -12 -10 -7 30 30 71 96 126 125 137 77 74 32 37 -3 8 0 5 -9 4 5 5 -16 5 -21 15 -37 -12 -12 -4 -7 -20 -21 -6 -18 0 -11 0 -12 -16 -14 -4 -14 -14 -14 -14 -14 -14 -22 -22 -36 -11 -21 -20 -39 -24 -43 -24 -37 -24 -38 -35 -60 -25 -51 -2 8 24 36 84 52 1 -31 -38 -80 -70 -93 -56 -96 -53 -111 -115 -223 -14 667 704 249 118 -13 -55 -99 -99 -101 -93 -94 -94 -94 -80 -79 -79 -90 -84 -92 -95 -94 -70 -54 -36 -15 42 53 64 41 32 -3 -14 -36 -15 -30 -32 -32 -21 -41 -34 -54 -43 -57 -43 -61 -57 -58 -57 -56 -61 -61 -59 -62 -48 -59 -54 -54 -44 -36 -37 -49 -49 -33 -33 -66 -26 -52 -36 -52 -50 -62 -51 -74 -51 -66 -64 -66 -39 -16 8 16 61 46 31 -40 -40 -108 -108 -122 -130 -124 -126 -99 -130 -193 -175 122 638 410 130 29 -83 -125 -127 -138 -136 -151 -145 -142 -116 -129 -119 -125 -114 -128 -119 -119 -96 -86 -80 -45 -10 26 52 30 -4 -41 -66 -78 -79 -76 -79 -79 -86 -98 -87 -103 -98 -110 -110 -98 -109 -112 -124 -115 -104 -122 -108 -131 -105 -120 -93 -109 -109 -121 -109 -108 -87 -107 -93 -106 -82 -94 -118 -99 -63 -99 -76 -103 -80 -100 -92 -102 -87 -114 -92 -104 -35 -22 -12 -26 37 0 -34 -70 -84 -132 -132 -145 -148 -161 -132 -155 -139 -283 -157 581 617 158 54 -83 -106 -141 -128 -143 -146 -137 -136 -124 -125 -129 -128 -128 -117 -125 -111 -84 -57 -63 -23 -10 26 59 75 40 29 -21 -8 -45 -33 -45 -45 -66 -40 -62 -45 -56 -55 -68 -41 -62 -42 -80 -63 -65 -55 -58 -56 -63 -51 -52 -52 -65 -44 -47 -47 -49 -36 -43 -53 -55 -26 -41 -44 -38 -22 -33 -22 -21 -23 -10 -12 -23 -21 -22 -9 -2 46 70 63 95 129 85 23 2 -10 -41 -42 -63 -40 -64 -30 -68 -101 -150 65 638 588 229 106 -5 -43 -73 -75 -90 -69 -73 -61 -82 -61 -72 -82 -82 -73 -85 -77 -90 -54 -47 -22 1 68 71 119 42 44 10 26 -26 -22 -34 4 -23 -7 -37 -4 -26 -19 -54 -27 -50 -5 -36 -20 -44 -25 -48 -28 -41 -42 -52 -28 -52 -37 -47 -27 -49 -52 -52 -28 -52 -26 -39 -47 -52 -33 -50 -47 -57 -55 -37 -3 8 45 33 107 117 25 -3 -8 -48 -49 -68 -39 -74 -37 -62 -46 -215 -66 578 698 508 255 42 33 -44 -42 -57 -54 -54 -31 -42 -39 -42 -18 -16 -30 -27 -17 -19 -2 11 32 33 96 112 141 129 116 108 64 54 77 53 92 69 93 68 57 60 82 56 82 58 60 62 75 52 49 47 71 59 41 53 55 46 55 54 31 35 36 36 42 42 42 41 55 39 59 108 118 158 164 124 78 44 2 -7 -6 -11 13 -24 15 -23 -33 -108 101 768 678 289 162 50 11 -36 -16 -25 -10 -23 1 -14 -16 -17 3 -19 1 -9 7 4 18 29 73 86 137 114 151 98 99 64 61 36 36 25 33 11 21 25 39 24 47 21 32 3 40 11 27 3 26 4 16 4 17 17 31 11 32 6 30 16 39 11 24 6 55 4 35 11 22 10 25 23 22 45 106 98 113 117 127 46 45 7 -17 -23 -26 -38 -25 -25 -21 -48 -175 -57 639 751 306 156 75 8 -26 -29 -39 -39 -22 -15 -1 -2 -5 -15 0 -13 2 1 31 31 56 64 89 134 136 146 144 95 96 35 43 21 29 21 32 16 0 19 30 7 22 12 13 8 18 -2 8 -5 5 -25 -6 -21 5 -23 -33 -24 -11 -22 0 -21 -6 -22 -10 -12 -19 -14 6 -4 5 -25 23 45 63 51 77 98 54 15 0 -68 -67 -92 -94 -70 -89 -67 -82 -145 -138 192 610 422 170 45 -74 -98 -98 -112 -116 -122 -112 -124 -112 -121 -117 -128 -131 -131 -122 -124 -121 -116 -103 -54 -31 5 43 29 15 -21 -34 -45 -56 -56 -68 -58 -71 -70 -73 -62 -36 -64 -61 -55 -27 -54 -51 -79 -88 -67 -59 -70 -70 -84 -83 -85 -77 -64 -66 -60 -56 -55 -82 -73 -43 -43 -41 -49 -28 -4 -2 32 90 90 42 5 -35 -46 -63 -63 -67 -64 -63 -64 -112 -174 -108 249 627 660 279 54 14 -50 -51 -63 -53 -52 -40 -71 -21 -55 -69 -75 -67 -60 -45 -66 -25 -41 -11 1 41 77 110 96 93 51 -11 17 47 23 24 14 25 9 26 9 16 6 21 4 6 5 2 1 -14 -16 -16 -25 -41 -29 -28 -37 -61 -21 -2 -28 -41 -41 -21 15 40 18 49 52 -20 -41 -99 -112 -131 -152 -140 -153 -164 -136 -170 -211 -242 28 588 496 116 6 -92 -177 -200 -172 -152 -161 -160 -162 -189 -149 -154 -154 -154 -157 -153 -167 -153 -142 -116 -106 -118 -80 -57 -60 -75 -98 -128 -138 -149 -172 -192 -178 -168 -179 -181 -189 -227 -184 
#avR[uV]
-522 -234 -451 -117 -324 -17 -234 59 -85 201 17 17 15 16 9 24 17 10 3 -4 5 13 9 9 7 -14 -21 -45 -39 -70 -85 -97 -84 -20 7 17 7 18 20 -21 18 10 -21 -275 -644 -224 49 -43 -17 -20 -4 -9 -21 -34 -43 -54 -72 -48 -83 -107 -111 -139 -185 -192 -238 -322 -329 -384 -396 -400 -383 -297 -204 -102 -60 -16 4 -7 0 -1 0 -10 -2 -24 -33 15 7 -15 -18 -20 -14 -5 -12 0 -16 -1 -6 -9 -3 -3 -2 -8 -15 -13 -6 -16 -21 -23 -7 -5 -26 -6 0 -15 2 -4 -9 1 0 -1 -15 -7 0 0 -21 0 -5 -25 -48 -49 -47 -76 -91 -82 -138 -69 2 7 12 20 21 28 8 28 -3 -54 -430 -620 -174 46 -9 2 -9 5 -16 -9 -14 -35 -52 -48 -65 -69 -100 -108 -115 -180 -216 -240 -295 -329 -388 -376 -366 -327 -222 -117 -61 1 28 26 50 41 40 39 47 29 31 36 1 30 29 24 19 28 22 6 15 15 17 25 14 18 8 21 18 18 20 6 25 25 21 28 27 35 20 30 35 36 26 37 41 40 39 32 31 32 32 33 37 11 39 27 -31 5 -18 -25 -56 -65 -56 1 42 52 53 59 64 60 64 52 36 -150 -577 -335 19 27 17 31 50 51 38 40 24 6 4 9 -19 -37 -43 -67 -103 -108 -172 -211 -271 -310 -337 -343 -319 -248 -119 -66 -5 70 94 94 95 107 105 112 98 100 103 114 95 99 110 97 101 98 109 112 105 113 118 128 134 118 107 115 118 117 92 115 111 127 118 121 100 108 117 109 112 101 104 116 110 109 103 103 100 68 75 74 55 61 32 1 -17 9 70 104 100 120 109 125 107 133 83 87 -169 -565 -118 172 57 93 82 119 94 92 89 93 72 57 68 35 22 4 -23 -55 -96 -131 -185 -234 -282 -310 -299 -284 -193 -90 -3 65 93 107 111 128 137 110 123 111 111 130 108 135 125 114 123 117 115 120 131 129 86 122 128 98 103 112 110 103 105 100 77 118 88 91 102 90 100 99 101 81 84 86 44 38 31 -2 -9 -28 -23 19 55 76 78 84 76 68 67 71 44 -82 -483 -388 29 81 52 32 46 55 45 41 24 20 -5 -15 -33 -30 -63 -74 -115 -137 -198 -240 -282 -337 -353 -372 -352 -289 -183 -110 -16 30 45 76 67 51 66 50 62 65 55 42 37 51 45 46 39 45 55 41 52 57 49 36 62 71 53 68 41 57 42 51 52 33 52 45 27 31 24 -5 -7 -28 -24 -44 -75 -80 -29 30 36 47 48 47 73 53 68 18 -15 -389 -629 -130 87 14 29 16 33 27 -4 0 4 -11 -27 -38 -61 -59 -104 -118 -149 -189 -254 -294 -334 -370 -384 -374 -319 -223 -131 -48 6 11 18 36 46 33 30 43 20 43 39 17 13 28 20 9 34 39 27 39 38 37 32 37 35 35 51 61 36 33 40 30 21 42 27 35 24 23 21 8 38 -9 -24 -26 -52 -53 -65 -77 -74 -27 16 32 38 43 26 49 53 34 7 -198 -585 -374 21 3 -8 11 24 20 21 13 3 -3 -1 -29 -32 -49 -44 -82 -112 -158 -208 -219 -285 -322 -342 -353 -325 -250 -137 -43 5 35 81 69 69 80 81 68 85 87 42 74 86 65 71 70 70 73 74 63 87 81 69 74 75 72 66 73 67 67 80 53 64 63 52 67 57 52 62 68 54 61 62 62 54 51 64 56 29 -1 12 8 -20 -39 -59 -38 37 53 62 82 61 95 76 89 68 33 -281 -649 -213 92 67 31 26 49 30 31 35 15 -10 15 12 -20 -42 -53 -77 -102 -129 -162 -214 -284 -298 -323 -321 -279 -195 -98 -9 38 63 86 105 91 91 102 89 59 74 80 76 80 77 77 71 76 74 74 92 91 87 92 76 84 101 78 83 83 78 78 66 66 69 75 58 65 72 77 61 55 60 62 67 47 33 70 50 49 52 32 21 14 -8 -39 -19 -53 -26 46 61 73 80 78 88 68 112 78 61 -252 -606 -91 121 34 66 50 74 41 39 26 46 42 15 0 -6 -37 -52 -57 -69 -128 -182 -205 -250 -297 -320 -335 -295 -205 -112 -38 35 79 94 87 83 102 99 70 88 66 65 60 66 68 73 69 46 82 76 77 68 70 74 77 86 75 76 80 57 61 80 77 57 58 59 70 50 56 57 55 66 69 63 65 27 31 28 -2 -14 -30 -30 -10 47 74 80 86 66 103 81 102 70 46 -272 -617 -120 111 26 66 21 60 51 57 42 35 30 26 28 -1 -31 -32 -45 -85 -130 -167 -228 -288 -296 -336 -343 -283 -197 -89 1 38 74 96 99 103 110 116 88 98 90 74 89 87 86 88 78 101 82 81 106 105 94 82 75 93 76 77 73 83 78 65 63 73 58 77 65 50 87 62 50 66 79 70 68 59 54 70 68 89 57 64 58 54 52 15 29 4 -10 -28 -57 -48 9 78 75 75 93 73 65 89 88 38 -127 -526 -411 1 46 22 27 45 52 40 34 20 22 5 -11 -13 -15 -43 -65 -90 -137 -166 -216 -255 -279 -321 -327 -320 -243 -155 -67 1 45 95 83 84 109 89 86 92 78 69 68 69 76 62 43 70 70 53 77 62 51 68 59 56 83 70 65 55 49 53 49 65 49 55 67 62 41 52 49 56 56 57 46 42 58 52 50 43 53 71 36 47 39 47 57 56 56 46 44 58 42 38 7 6 -10 -33 -28 -51 -76 -49 28 43 47 47 41 63 51 63 31 -14 -341 -688 -263 70 7 17 9 34 5 -9 3 -19 -22 -23 -36 -52 -83 -78 -111 -149 -159 -202 -257 -284 -346 -376 -365 -342 -251 -155 -91 -24 30 16 47 53 48 50 33 32 30 20 20 18 17 40 26 5 18 37 31 9 28 15 26 20 15 21 2 21 35 25 18 20 5 37 50 37 31 19 35 24 28 38 25 47 25 11 37 22 39 29 25 34 10 -11 -18 -17 -25 -47 -68 -96 -40 43 44 52 64 45 60 59 79 42 -62 -393 -468 -78 67 51 30 55 53 27 34 15 15 -6 4 -8 -30 -61 -81 -115 -129 -174 -223 -271 -296 -338 -364 -335 -296 -204 -110 -24 37 53 74 94 98 85 92 115 76 76 80 57 64 75 79 91 79 79 68 68 82 83 79 86 81 68 78 63 64 59 64 64 72 75 52 70 60 58 75 51 46 51 40 41 45 35 48 25 -2 -11 -18 -46 -54 -62 -80 4 33 37 57 28 62 71 78 50 19 -163 -548 -366 14 32 29 26 45 25 46 42 18 6 8 -4 -21 -39 -45 -74 -91 -113 -165 -220 -252 -306 -341 -337 -325 -259 -146 -59 21 49 61 78 92 90 108 93 86 82 75 77 63 63 87 75 63 57 73 78 88 58 70 82 63 65 67 57 63 68 59 59 49 52 60 38 47 17 40 47 40 37 44 31 31 31 20 27 16 3 16 -5 -15 -46 -52 -51 -70 -90 -61 -4 26 24 34 33 43 25 56 25 -27 -402 -679 -225 58 12 -2 -18 8 2 5 -27 -33 -36 -41 -68 -69 -67 -99 -139 -166 -196 -254 -290 -337 -372 -390 -387 -356 -259 -146 -96 -21 19 25 17 35 32 21 44 46 42 25 24 41 32 36 43 23 49 48 42 41 41 49 55 41 39 33 52 51 53 63 36 37 32 41 23 30 27 29 47 27 25 26 -2 26 26 18 33 20 17 19 -11 -16 -37 -31 -59 -80 -82 -25 34 45 32 56 69 56 60 74 48 -95 -506 -401 -23 56 35 35 44 43 35 38 25 23 12 3 -11 -17 -46 -54 -85 -119 -166 -208 -257 -278 -310 -320 -318 -279 -184 -56 0 39 75 93 82 102 95 79 87 74 63 74 68 61 56 73 82 66 50 63 93 92 79 74 80 85 85 84 81 96 70 98 99 88 90 78 88 93 78 72 97 104 94 79 69 90 63 32 45 14 -29 -9 -14 -14 49 91 91 105 93 120 105 132 67 59 -274 -621 -56 153 38 75 43 79 47 67 47 45 31 26 31 1 -24 -35 -54 -89 -142 -167 -215 -255 -293 -341 -331 -311 -241 -130 -46 15 50 68 67 56 73 72 52 80 64 55 66 53 54 64 55 47 50 62 58 57 43 49 60 66 44 36 51 29 38 40 36 48 31 31 25 35 58 10 -4 -16 -27 -43 -62 -72 -70 -34 38 46 32 56 56 59 58 64 26 -93 -494 -503 -94 36 13 -17 8 16 -5 -8 -12 -16 -33 -41 -52 -54 -79 -91 -124 -139 -191 -215 -285 -352 -354 -367 -354 -265 -178 -67 -6 36 57 68 80 90 84 83 65 69 54 48 43 57 68 53 46 64 45 44 57 62 68 62 64 96 75 69 78 63 64 68 65 73 63 68 78 75 69 52 57 60 56 65 39 28 23 19 -14 -4 -40 -54 -16 14 82 86 79 92 101 89 100 87 24 -287 -671 -215 102 42 47 49 44 49 60 27 22 27 9 8 -25 -41 -47 -74 -104 -140 -191 -209 -263 -319 -336 -332 -295 -206 -92 -18 42 66 92 83 99 106 87 92 87 77 69 71 76 71 75 77 64 65 70 77 69 79 76 83 90 75 70 83 78 73 66 59 55 58 53 66 63 64 52 57 30 59 36 7 5 -10 -29 -32 -67 -66 0 45 45 66 75 64 63 59 53 20 -174 -586 -372 28 5 2 31 30 29 32 8 -5 0 -17 -21 -36 -58 -73 -88 -120 -139 -161 -239 -289 -318 -340 -353 -345 -264 -167 -70 -36 38 47 60 60 54 59 42 51 39 32 38 25 26 30 28 28 30 34 49 39 43 51 54 43 46 45 21 38 37 32 39 39 39 35 37 44 46 42 20 32 -3 -3 -13 -36 -45 -51 2 45 39 63 62 42 61 67 30 26 -230 -570 -248 21 -24 15 -16 0 -1 -7 -15 -5 -22 -50 -66 -74 -89 -103 -128 -160 -180 -235 -284 -331 -383 -401 -410 -393 -305 -216 -129 -72 -24 -17 -3 5 -12 6 -10 -28 -30 -27 -22 -39 -31 -26 -40 -13 -26 -27 -24 -25 -27 -22 -28 -30 -40 -31 -44 -48 -55 -51 -52 -85 -79 -96 -126 -138 -148 -158 -180 -167 -121 -46 -43 -47 -33 -30 -22 -42 -38 -83 -209 -581 -553 -118 -54 -103 -91 -79 -102 -78 -94 -118 -118 -141 -137 -167 -181 -204 -236 -262 -295 -325 -389 -433 -488 -502 -509 -514 -423 -300 -217 -146 -141 -101 -77 -89 -76 -86 -94 -99 -114 -97 -101 -108 
#avL[uV]
5542 6252 4458 5100 3359 4017 2255 2944 1136 1780 39 57 47 60 54 55 38 54 47 62 47 51 44 63 48 51 13 34 -7 7 -12 57 47 36 67 62 84 78 68 104 79 107 194 287 109 -329 -357 -87 12 81 107 119 123 130 137 141 142 142 152 164 155 179 201 213 218 259 237 260 230 222 180 145 80 69 55 61 41 64 52 73 56 74 64 93 72 67 60 90 75 95 74 89 85 91 90 104 98 108 96 112 94 105 101 113 100 120 104 122 89 106 97 103 88 106 88 102 93 88 89 90 90 88 83 86 88 85 66 85 57 40 39 46 20 51 106 101 75 103 92 100 100 105 79 100 106 221 252 -159 -320 -133 -47 78 85 113 116 121 113 139 137 127 127 139 136 170 148 192 200 206 202 221 213 216 170 142 69 45 39 28 12 41 12 32 31 31 11 36 17 22 32 33 20 30 21 19 29 37 38 38 38 38 43 49 54 47 38 37 35 46 27 28 18 37 21 25 33 36 25 34 26 20 12 18 3 18 16 16 2 3 -6 30 -15 -4 -25 -44 -45 -51 -43 -5 15 10 9 19 16 24 0 20 -7 32 68 184 101 -357 -395 -177 -100 -8 11 22 32 27 25 42 20 28 36 47 40 69 73 86 102 121 134 133 129 125 66 22 -33 -40 -53 -76 -80 -71 -73 -62 -53 -65 -55 -57 -76 -65 -66 -59 -80 -61 -72 -62 -68 -71 -76 -77 -71 -74 -78 -64 -58 -54 -69 -67 -62 -56 -63 -61 -77 -68 -59 -63 -80 -63 -62 -57 -63 -69 -73 -58 -74 -72 -70 -42 -84 -110 -110 -104 -126 -119 -60 -73 -81 -59 -58 -65 -71 -71 -70 -84 -54 19 122 -34 -475 -520 -265 -152 -93 -70 -61 -42 -40 -30 -9 -15 -40 -13 -11 4 30 36 47 82 87 103 105 108 69 38 -14 -66 -101 -109 -124 -117 -123 -122 -141 -120 -130 -120 -102 -120 -141 -115 -133 -111 -142 -109 -128 -118 -121 -119 -115 -123 -137 -111 -118 -120 -109 -119 -123 -99 -105 -100 -106 -94 -116 -93 -95 -94 -94 -86 -110 -97 -114 -120 -139 -133 -139 -120 -92 -72 -95 -94 -76 -70 -87 -64 -103 -68 -23 80 104 -443 -687 -369 -160 -103 -83 -79 -61 -63 -65 -63 -61 -40 -51 -41 -23 -18 30 17 30 60 62 98 73 75 56 -13 -72 -104 -132 -138 -138 -135 -110 -115 -127 -110 -134 -109 -99 -110 -100 -107 -113 -104 -101 -94 -102 -75 -98 -90 -101 -85 -107 -103 -71 -100 -97 -85 -66 -90 -93 -73 -92 -79 -67 -74 -61 -89 -101 -98 -108 -117 -92 -42 -52 -63 -40 -17 -19 -37 -33 -44 -33 3 100 212 -204 -507 -257 -122 -56 -9 0 13 22 21 48 35 31 56 65 45 57 69 101 99 134 166 154 151 125 105 49 9 -28 -35 -10 -32 -35 -24 -42 -17 -5 -28 -16 -29 -21 7 -9 -6 -9 14 13 12 5 0 3 5 8 13 2 4 37 14 14 24 12 28 26 16 30 35 19 22 26 34 11 29 0 -15 -2 -19 -28 15 48 42 64 47 52 59 57 64 33 76 150 227 149 -323 -331 -114 -30 46 52 81 95 94 77 91 82 98 88 121 102 123 158 152 174 169 190 193 195 201 130 88 78 15 29 21 -2 21 22 18 39 32 14 25 38 41 63 49 37 40 41 49 49 54 52 55 65 55 68 76 75 62 73 72 65 104 67 68 90 85 79 74 71 90 88 75 74 74 70 81 92 76 56 51 59 48 12 31 89 87 61 86 88 75 77 69 60 71 81 201 330 40 -354 -204 -38 43 79 101 100 116 134 101 142 103 118 142 148 153 147 169 175 199 213 232 221 216 195 150 88 65 59 19 24 25 43 26 27 27 26 54 32 20 23 32 20 34 28 17 24 40 45 33 23 31 29 27 18 48 25 25 34 17 23 23 22 10 28 34 20 28 30 25 15 11 16 26 35 16 17 18 47 7 -23 -24 -31 -26 -45 6 7 -2 32 7 13 1 10 1 -7 9 122 237 -41 -453 -420 -193 -76 -6 14 13 30 37 16 21 35 33 27 65 53 64 110 120 127 131 146 153 148 131 67 34 -12 -36 -32 -57 -70 -55 -62 -60 -72 -38 -20 -39 -54 -34 -46 -23 -26 -52 -41 -49 -56 -55 -38 -38 -50 -58 -60 -50 -51 -34 -44 -54 -55 -71 -49 -33 -57 -62 -72 -65 -39 -65 -70 -65 -70 -53 -66 -89 -104 -105 -133 -100 -40 -56 -55 -53 -45 -54 -33 -44 -54 -55 -28 60 185 -143 -506 -419 -211 -124 -43 -51 -35 -29 -3 -31 -34 -42 -41 -28 0 -17 10 5 58 42 103 97 70 69 65 3 -40 -92 -109 -110 -104 -115 -105 -118 -88 -102 -98 -118 -73 -93 -85 -97 -92 -108 -82 -106 -79 -96 -86 -92 -94 -88 -76 -93 -83 -94 -70 -106 -97 -107 -84 -87 -79 -97 -92 -79 -100 -107 -82 -99 -113 -87 -103 -106 -81 -103 -96 -110 -110 -105 -101 -93 -112 -127 -128 -144 -154 -154 -99 -81 -84 -88 -82 -82 -87 -87 -55 -106 -55 -35 85 12 -434 -425 -236 -188 -68 -77 -54 -66 -53 -57 -60 -63 -38 -51 -32 -39 -11 -27 5 27 39 33 30 31 25 -5 -63 -87 -111 -125 -120 -138 -115 -117 -114 -112 -106 -113 -111 -108 -105 -109 -105 -103 -84 -106 -90 -91 -104 -89 -67 -86 -63 -80 -94 -88 -75 -78 -84 -76 -73 -108 -79 -91 -89 -95 -68 -76 -71 -82 -82 -85 -63 -70 -78 -67 -67 -55 -60 -77 -58 -66 -70 -75 -72 -67 -62 -56 -56 -64 -48 -40 -51 -87 -70 -73 -101 -92 -27 -24 -42 -38 -12 -24 -7 -35 -18 -40 6 128 214 -135 -430 -301 -137 -88 0 -33 12 10 11 9 20 6 33 30 58 48 74 84 89 108 134 119 150 134 109 76 31 -25 -12 -43 -39 -36 -21 -33 -24 -29 -9 -19 -19 -14 2 -13 7 -31 15 6 0 -14 -10 10 1 -2 0 -10 0 -10 7 2 -6 -9 1 0 7 -7 -14 -7 0 6 10 -4 2 -3 17 -5 19 13 9 6 9 11 32 1 33 7 2 -9 -15 -39 -4 47 43 7 38 26 38 19 42 10 43 65 198 207 -265 -488 -221 -114 -5 14 47 60 58 62 63 74 69 64 74 90 108 121 134 158 182 188 188 196 193 135 108 54 24 -12 -15 -15 -9 -35 -26 -18 -21 -41 -7 -12 0 4 10 -4 6 -2 3 3 7 11 4 2 7 -7 4 6 1 1 -4 -1 5 5 -11 -12 23 -15 8 -2 1 12 24 12 35 17 26 30 25 16 13 0 -3 -22 -7 7 70 28 64 62 63 84 62 59 35 73 135 213 182 -295 -315 -113 -36 49 71 83 80 81 104 105 102 89 108 109 117 123 142 145 172 182 191 213 204 177 143 90 50 33 20 25 28 20 10 14 5 17 30 24 39 34 50 50 30 44 52 65 49 39 47 51 63 38 58 37 47 53 59 47 51 36 56 43 49 42 47 80 54 24 54 38 55 44 60 53 66 52 77 67 70 29 24 32 45 -2 35 71 84 65 86 87 91 95 99 86 88 92 226 319 -95 -349 -148 -47 63 89 101 95 104 123 119 120 114 128 131 130 146 158 177 182 190 188 216 203 203 174 133 73 42 26 26 -3 21 16 16 17 38 7 23 13 29 29 30 14 28 10 48 22 25 20 23 21 23 10 18 19 32 7 10 9 5 9 13 23 21 8 15 19 13 -6 11 4 2 18 -5 -4 8 -1 6 -1 -8 -28 -44 -29 -55 -67 -23 23 10 -9 8 15 19 -4 20 -7 14 51 160 204 -278 -429 -200 -97 -13 10 33 38 49 38 43 40 59 51 63 84 89 97 124 141 172 169 174 171 159 108 86 2 -3 -33 -27 -57 -26 -24 -25 -50 -22 -38 -9 -28 -17 -19 9 -7 0 -37 -6 -10 1 -27 -9 -18 -6 -8 -3 -21 -2 -12 -12 -14 -12 -10 -4 -23 0 -24 -17 -3 3 -23 -14 -11 3 6 -17 -28 -22 -56 -32 -65 -83 -11 9 -17 -9 -9 -1 -16 -4 -24 -19 0 132 187 -123 -495 -458 -210 -70 -46 -6 7 9 16 17 7 18 14 31 25 29 50 65 83 98 109 119 122 145 93 71 14 -31 -63 -88 -74 -74 -92 -68 -106 -88 -96 -91 -75 -73 -95 -68 -89 -75 -73 -70 -81 -71 -66 -63 -75 -69 -61 -73 -64 -53 -67 -55 -43 -47 -46 -51 -47 -47 -44 -49 -70 -34 -42 -72 -75 -97 -92 -57 -23 -16 -21 -17 -11 -19 -38 -11 -40 -14 11 128 171 -324 -461 -234 -128 -29 -12 18 15 23 14 26 15 31 38 40 36 60 61 77 89 104 129 154 122 118 74 46 -24 -40 -71 -66 -75 -61 -67 -64 -67 -50 -49 -53 -56 -42 -57 -44 -58 -29 -53 -41 -43 -24 -48 -34 -46 -34 -45 -61 -61 -43 -63 -36 -55 -46 -62 -44 -49 -38 -80 -41 -61 -34 -45 -38 -47 -50 -36 -47 -91 -83 -77 -85 -75 -8 -25 -12 -28 -25 -19 -17 -31 -25 -34 -7 119 187 -144 -455 -281 -138 -80 -31 -2 -2 0 16 5 -2 -3 -2 16 32 24 47 50 69 72 80 89 111 101 65 45 -6 -62 -62 -93 -59 -78 -58 -71 -69 -67 -58 -44 -53 -57 -41 -55 -45 -47 -45 -46 -30 -41 -34 -38 -20 -33 -25 -48 -20 -9 -23 -30 -19 -33 -13 -23 -12 -19 -23 -17 -21 -30 -25 -19 -10 -36 -38 -50 -33 -43 -57 -6 21 0 28 27 36 33 20 35 20 35 98 190 149 -271 -331 -130 -35 39 58 59 68 83 95 84 101 95 109 116 133 143 159 161 174 211 232 236 211 200 168 99 61 24 34 6 10 12 12 23 14 31 27 35 31 8 35 32 26 6 26 22 42 41 31 22 26 25 41 39 41 47 29 31 28 23 22 42 37 13 10 7 15 11 -12 3 -22 -61 -49 -9 21 25 12 27 16 19 27 16 14 68 117 196 98 -346 -506 -197 -48 -2 37 39 51 47 42 41 78 49 78 96 108 114 125 124 167 161 196 200 199 174 138 69 36 -5 -2 20 -4 -33 -20 -12 -14 -14 7 -4 7 -1 14 0 10 15 2 11 12 22 25 26 30 45 37 41 43 68 40 29 47 57 73 55 36 32 55 37 40 105 115 135 107 120 137 122 130 134 123 147 200 286 269 -164 -312 -60 47 115 172 201 168 161 180 179 192 211 195 206 218 234 249 263 288 309 324 331 330 343 317 254 195 165 147 166 155 150 174 182 177 173 184 193 190 221 192 
#avF[uV]
-5019 -6018 -4006 -4983 -3034 -3999 -2020 -3003 -1051 -1981 -57 -74 -62 -76 -63 -80 -56 -65 -51 -58 -53 -64 -53 -72 -55 -36 8 10 47 62 97 40 37 -16 -74 -79 -91 -96 -88 -83 -98 -118 -173 -12 535 553 308 131 4 -60 -102 -109 -102 -96 -93 -86 -69 -93 -68 -56 -44 -39 -16 -20 20 62 92 124 166 178 202 151 123 32 5 -44 -46 -56 -52 -71 -55 -63 -62 -69 -38 -82 -68 -74 -57 -74 -59 -84 -73 -91 -74 -103 -92 -99 -92 -108 -92 -97 -86 -100 -93 -103 -83 -98 -82 -101 -70 -96 -88 -90 -90 -97 -84 -89 -90 -89 -74 -81 -84 -85 -67 -85 -61 -60 -8 8 8 30 70 31 32 -32 -77 -110 -105 -120 -121 -134 -88 -129 -103 -167 177 780 495 86 56 -81 -76 -119 -100 -112 -98 -104 -84 -79 -62 -69 -36 -61 -33 -12 15 34 92 108 174 160 195 185 152 71 22 -29 -40 -67 -62 -74 -71 -71 -58 -66 -48 -58 -33 -63 -49 -54 -41 -47 -51 -43 -54 -54 -55 -63 -57 -68 -62 -69 -57 -56 -55 -52 -52 -54 -39 -65 -49 -60 -54 -67 -60 -71 -53 -57 -54 -59 -42 -51 -48 -48 -35 -37 -31 -42 -23 -22 57 38 64 76 100 70 40 -12 -51 -72 -70 -83 -64 -81 -57 -84 -105 -33 476 693 376 149 82 -23 -62 -74 -70 -68 -50 -48 -25 -37 -17 -10 2 -2 30 21 70 89 136 177 208 217 253 225 152 106 58 5 -14 -23 -22 -44 -51 -46 -43 -43 -26 -48 -28 -40 -29 -35 -28 -35 -41 -40 -29 -35 -46 -54 -56 -54 -48 -60 -49 -49 -30 -59 -47 -66 -41 -53 -41 -45 -36 -45 -49 -44 -41 -47 -36 -50 -29 -30 -30 -25 9 36 54 43 93 118 77 64 10 -44 -42 -54 -38 -54 -36 -49 -28 -107 47 600 593 347 207 59 10 -48 -32 -50 -48 -62 -62 -41 -28 -22 -10 -9 -7 18 48 48 97 130 177 201 229 245 208 156 105 44 30 9 11 -5 4 9 7 8 -8 -9 33 -19 8 -2 18 -7 13 -1 -9 -9 28 1 9 12 15 8 -1 16 17 0 28 -18 17 2 13 2 -4 -5 -7 4 25 10 70 81 107 135 149 148 115 52 39 18 -1 -14 10 -3 35 -3 -21 2 379 831 657 287 108 71 37 24 15 21 40 42 66 55 84 72 86 93 85 119 168 179 219 238 279 297 296 302 255 214 149 107 92 58 42 64 60 60 72 43 44 68 63 56 68 57 62 49 47 33 46 32 51 48 44 32 17 32 56 27 23 39 41 39 39 33 40 42 37 94 109 127 133 162 167 122 82 33 4 -29 -28 -10 -40 -9 -35 -22 -84 177 833 638 169 108 27 -7 -33 -40 -17 -21 -53 -24 -4 -17 -3 14 46 48 47 89 120 127 180 218 259 269 270 213 160 84 4 20 17 -12 -3 -16 -24 -15 -3 -13 -18 -25 -4 -22 -10 -23 -48 -52 -33 -39 -42 -43 -40 -51 -38 -39 -88 -76 -51 -57 -53 -59 -47 -58 -58 -70 -44 -45 -47 -43 -50 -19 23 42 55 73 93 62 25 -15 -80 -80 -90 -103 -83 -114 -87 -110 -158 -28 436 698 309 111 39 -58 -77 -101 -116 -107 -81 -88 -81 -68 -55 -72 -57 -41 -45 6 33 50 95 129 146 151 195 162 58 28 -34 -56 -78 -90 -92 -99 -120 -100 -99 -113 -81 -115 -150 -115 -109 -111 -111 -123 -123 -118 -139 -137 -135 -130 -143 -149 -141 -135 -140 -140 -145 -158 -131 -132 -143 -152 -137 -126 -133 -159 -143 -137 -136 -136 -125 -132 -156 -133 -86 -49 -71 -56 8 7 -29 -49 -99 -140 -151 -158 -139 -165 -137 -160 -149 -235 -49 608 567 112 -28 -75 -105 -150 -131 -148 -170 -117 -132 -118 -130 -122 -106 -100 -70 -67 -46 -37 1 52 77 107 125 128 106 33 -50 -58 -87 -111 -148 -118 -118 -130 -116 -113 -106 -101 -99 -113 -98 -112 -100 -94 -98 -115 -138 -124 -110 -123 -105 -112 -119 -126 -108 -108 -112 -96 -89 -89 -92 -86 -87 -99 -92 -105 -92 -81 -75 -73 -84 -74 -68 -87 -68 -67 -99 -40 1 10 40 65 65 47 18 -44 -93 -80 -94 -79 -99 -70 -105 -87 -184 14 647 544 299 159 9 -43 -88 -54 -70 -63 -62 -63 -50 -33 -20 -27 -1 -6 -40 8 55 74 104 143 172 203 227 171 124 75 -3 -21 -24 -31 -21 -42 -27 -31 -68 -27 -10 -26 -20 -44 -46 -16 -5 -32 -19 -22 -30 -31 -23 -18 -25 -24 -25 -45 -13 -7 -24 -5 -8 -25 -1 -7 22 9 -17 10 3 -4 7 -11 38 58 75 107 148 131 71 66 8 -21 -35 -31 -32 -58 -26 -46 -42 -106 86 760 626 308 184 57 21 -9 -15 -27 -39 -4 4 15 13 29 32 49 34 80 71 124 125 191 225 266 277 280 237 182 108 72 29 18 5 14 -22 -14 9 19 -16 19 -3 10 6 19 4 4 -2 15 -19 -13 0 5 0 0 6 16 -3 22 18 41 20 14 21 20 27 28 13 44 32 32 34 16 35 47 26 32 28 20 53 41 43 39 59 111 99 140 165 182 156 130 75 9 6 7 -5 13 -9 16 -33 -2 41 514 845 423 190 165 41 32 2 25 19 36 38 58 50 64 47 83 76 117 131 139 177 222 248 289 301 325 306 243 178 124 75 43 32 33 4 22 20 21 33 39 37 39 29 41 41 35 19 37 26 26 15 17 4 24 11 17 9 22 35 23 23 43 30 36 21 33 27 24 21 26 26 27 16 28 20 15 17 12 6 6 21 19 30 27 14 10 5 10 11 6 6 2 43 81 81 107 130 143 103 74 13 -5 -34 -22 -33 -27 -33 -23 -37 -113 127 824 694 231 129 70 -9 0 -18 -1 -14 9 2 16 3 21 25 30 37 65 70 93 122 164 195 242 255 265 219 180 103 67 9 20 -26 -20 -24 -21 -23 -13 -11 -5 -22 -4 -24 -8 -41 -12 -18 -22 -21 -19 -30 -12 -27 -10 -16 -10 -10 -23 -28 -15 -19 -20 -13 -29 -36 -29 -32 -26 -45 -20 -30 -34 -42 -41 -45 -24 -46 -29 -48 -41 -57 -35 -43 3 15 27 40 87 73 49 -3 -50 -82 -79 -102 -64 -102 -69 -123 -108 -136 186 734 567 153 63 -25 -69 -100 -88 -92 -77 -78 -67 -73 -55 -44 -29 -27 -5 -4 15 40 83 107 141 170 199 188 150 86 36 -21 -37 -64 -58 -72 -67 -71 -74 -69 -64 -80 -61 -75 -70 -85 -88 -83 -83 -76 -80 -87 -86 -86 -79 -85 -75 -80 -65 -60 -57 -69 -69 -61 -62 -76 -55 -69 -56 -77 -63 -70 -64 -76 -59 -72 -66 -74 -42 -10 12 21 69 62 54 9 -33 -98 -100 -120 -112 -124 -130 -113 -123 -154 -49 366 662 300 81 7 -75 -116 -108 -127 -123 -122 -112 -111 -84 -86 -69 -71 -48 -50 -32 -6 38 60 92 137 160 182 169 96 26 -42 -74 -89 -98 -103 -104 -113 -111 -116 -106 -114 -112 -114 -114 -117 -119 -116 -122 -123 -117 -136 -110 -134 -120 -122 -102 -115 -110 -122 -116 -111 -95 -105 -96 -110 -81 -95 -97 -94 -71 -94 -76 -99 -75 -91 -84 -86 -79 -93 -71 -86 -23 -8 13 6 53 34 19 -22 -61 -112 -111 -126 -128 -142 -112 -144 -117 -198 82 775 575 89 34 -61 -70 -110 -97 -110 -96 -86 -84 -72 -59 -62 -62 -47 -18 -10 14 63 101 121 168 187 213 223 186 103 70 -5 -16 -47 -34 -51 -50 -60 -52 -70 -55 -55 -53 -71 -47 -64 -53 -72 -72 -73 -62 -64 -63 -72 -66 -59 -59 -65 -59 -61 -62 -68 -45 -51 -56 -62 -31 -46 -46 -43 -40 -39 -29 -29 -16 -21 -22 -27 -32 -27 -15 -11 40 61 66 87 126 104 58 14 -25 -53 -48 -75 -65 -76 -52 -88 -100 -64 302 679 453 143 62 -21 -54 -76 -74 -87 -64 -66 -52 -63 -39 -45 -38 -34 -12 -4 25 35 87 103 138 160 210 193 181 59 33 -12 -17 -66 -58 -77 -44 -57 -49 -65 -34 -57 -48 -71 -48 -74 -45 -60 -40 -65 -66 -82 -61 -68 -72 -82 -64 -81 -68 -84 -55 -86 -89 -83 -66 -78 -64 -76 -74 -75 -73 -90 -83 -82 -75 -73 -34 -9 10 18 95 92 26 4 -31 -81 -82 -103 -76 -116 -81 -112 -68 -191 87 745 552 304 172 -5 3 -72 -55 -76 -64 -63 -39 -44 -45 -32 -1 5 4 23 58 69 105 136 171 195 238 239 226 162 110 73 23 6 24 11 32 15 43 11 11 18 28 15 34 11 17 22 31 8 7 6 31 19 0 6 19 16 15 25 4 6 9 2 15 15 19 13 12 24 47 89 102 140 154 129 94 50 -17 -29 -21 -36 -17 -48 -18 -49 -38 -34 323 828 556 198 114 46 4 -35 -9 -15 -1 -9 17 9 14 13 42 30 62 62 101 111 156 198 232 248 280 218 202 108 78 30 17 -7 -13 -26 -16 -33 -16 -16 2 -5 14 -12 -9 -23 7 -23 -2 -19 -8 -27 -21 -27 -19 -35 -14 -26 -15 -26 -9 -21 -2 -28 -13 -29 2 -34 -8 -17 -11 -22 -9 -14 -3 19 68 64 92 90 116 62 42 -1 -54 -60 -59 -75 -69 -63 -66 -80 -143 100 815 671 178 95 32 -18 -41 -47 -59 -43 -28 -25 -5 -5 8 9 23 27 54 71 119 128 173 207 234 266 250 212 155 81 50 -6 -14 -25 -27 -36 -19 -33 -43 -24 -11 -29 -21 -26 -27 -32 -18 -34 -28 -42 -30 -58 -42 -58 -41 -55 -60 -59 -48 -53 -33 -45 -32 -45 -34 -42 -45 -42 -21 -32 -11 -49 0 30 44 43 72 89 74 44 0 -73 -72 -102 -108 -85 -99 -80 -88 -119 -16 437 643 302 124 32 -71 -89 -88 -101 -91 -89 -83 -84 -73 -72 -58 -59 -54 -38 -22 -12 28 57 81 129 152 177 165 105 46 2 -45 -58 -72 -72 -78 -73 -74 -78 -74 -63 -47 -60 -59 -57 -35 -55 -53 -76 -90 -70 -66 -78 -79 -84 -86 -87 -69 -68 -68 -61 -62 -61 -81 -73 -51 -54 -54 -58 -31 -19 0 26 75 86 54 29 -28 -57 -67 -79 -81 -69 -77 -82 -99 -144 34 472 594 484 221 33 19 -37 -37 -43 -32 -36 -18 -28 17 -3 -7 -5 13 35 56 67 122 134 183 201 236 254 235 180 134 74 3 22 36 15 24 7 24 21 35 20 23 24 31 16 24 10 15 15 1 0 0 -7 -16 -7 -1 -12 -23 8 25 4 -5 11 23 59 94 82 111 118 75 52 -14 -60 -76 -90 -88 -99 -111 -80 -108 -116 -77 311 717 431 114 56 -23 -93 -99 -90 -67 -62 -61 -51 -73 -28 -25 -13 1 12 32 37 79 109 156 171 165 197 168 104 52 0 -25 -53 -72 -84 -106 -90 -79 -85 -79 -93 -119 -84 
