ADC Sampling rate (Hz):
100
Fragment duration (sec):
20
Number of samples exported by each lead:
1999

#I[uV]
5969 5364 4817 3983 3839 2986 2161 1397 1095 285 1 16 15 -26 27 58 62 103 121 161 194 236 285 332 353 337 293 242 160 70 71 -1 -47 -22 -29 -13 -14 -4 0 -15 -23 -30 -46 -58 -33 -33 -37 -37 -65 -45 -37 -36 -56 -37 4 17 -22 -78 -31 -43 -46 -33 -48 -41 8 155 330 40 -292 -186 -89 -13 -3 2 26 5 29 9 34 52 78 130 156 230 303 308 288 272 200 165 106 9 0 -47 -79 -49 -73 -59 -48 -26 -62 -45 -19 -86 -49 -50 -54 -56 -70 -70 -54 -45 -37 -36 -69 -33 -3 25 26 -34 -55 -43 -23 -51 -49 -50 -11 48 292 305 -204 -284 -93 -62 -12 -8 -4 7 14 41 60 69 96 122 177 244 298 305 333 328 273 232 143 50 16 -8 -23 -36 -32 -55 -23 -14 -44 -25 -10 -20 -2 -39 -32 -36 -32 -40 -23 -47 -37 -46 -34 -35 -10 -41 -59 -57 -32 -22 31 6 -30 -37 -35 -48 -50 -40 -64 -33 37 337 398 -162 -278 -86 -44 -7 -2 10 22 46 54 72 75 109 163 172 238 312 363 339 339 309 248 156 94 50 -23 -12 0 -12 -35 -54 -28 -26 -34 -21 -31 -56 -37 -27 -10 -40 -31 -41 -44 -30 -19 -16 -61 -25 -18 -25 -23 -38 -2 41 25 -15 -5 -48 -36 -32 -30 -22 -48 18 274 333 -206 -366 -141 -75 -14 -36 1 0 0 45 40 66 98 110 163 194 254 312 357 332 257 240 197 103 29 -13 -29 -69 -34 -47 -28 -38 -50 -61 -33 -4 -60 -85 -59 -58 -45 -77 -64 -34 -86 -61 -58 -68 -49 -19 -15 -70 -74 -73 -81 -79 -61 -73 -49 -17 225 324 -194 -384 -155 -110 -49 -10 -30 0 32 23 35 59 74 115 146 219 253 300 334 320 282 211 151 183 10 -32 -34 -43 -59 -17 -49 -44 -30 -38 -52 -71 -52 -61 -75 -47 -48 -48 -83 -40 -49 -67 -47 -44 -16 -48 -56 -50 -56 -70 -85 -49 -74 -66 -10 177 342 -126 -370 -136 -124 -70 -44 -33 -45 -15 1 -1 32 50 73 113 204 232 275 297 295 252 214 202 86 0 -45 -70 -65 -78 -84 -51 -49 -50 -52 -56 -57 -73 -53 -82 -75 -65 -100 -76 -67 -77 -87 -73 -60 -81 -77 -57 4 -34 -90 -93 -80 -88 -92 -75 -129 -60 -17 242 325 -223 -353 -182 -139 -105 -73 -57 -52 -21 -32 -24 5 27 44 78 183 227 226 253 271 216 177 95 -3 -48 -97 -105 -119 -90 -113 -112 -98 -128 -124 -111 -94 -162 -117 -118 -123 -104 -114 -103 -110 -115 -106 -139 -105 -90 -125 -92 -106 -96 -84 -121 -63 -27 -37 -91 -92 -64 -105 -103 -85 -83 -39 63 391 68 -412 -258 -140 -98 -73 -81 -73 -61 -21 -55 -6 3 -2 86 117 157 197 236 268 232 200 133 66 -16 -81 -122 -112 -106 -127 -163 -134 -98 -110 -120 -118 -119 -138 -141 -135 -135 -144 -167 -140 -148 -146 -125 -158 -179 -158 -148 -125 -108 -71 -131 -162 -122 -146 -149 -122 -160 -137 -81 13 230 -74 -476 -302 -190 -152 -127 -128 -114 -104 -89 -63 -43 -27 -10 41 69 117 167 179 237 195 135 101 -14 -51 -111 -146 -153 -167 -164 -142 -167 -126 -112 -207 -137 -140 -152 -161 -171 -141 -160 -197 -166 -169 -181 -162 -169 -147 -108 -91 -182 -185 -136 -149 -153 -131 -143 -120 -107 19 260 16 -375 -267 -176 -127 -101 -82 -100 -99 -57 -57 -44 -5 16 71 84 134 218 250 259 255 194 110 49 -10 -94 -94 -97 -118 -129 -92 -110 -99 -85 -93 -104 -85 -84 -78 -99 -106 -138 -90 -86 -101 -97 -101 -102 -74 -95 -73 -6 -38 -79 -98 -123 -87 -97 -84 -105 -81 -23 223 307 -209 -366 -195 -142 -75 -79 -60 -53 -21 -32 -28 1 44 81 85 172 217 273 297 260 264 211 159 54 15 -30 -132 -70 -55 -78 -75 -89 -70 -71 -66 -76 -86 -77 -75 -86 -80 -72 -87 -82 -61 -75 -69 -83 -69 -47 -100 -86 -63 -56 -47 -47 -24 -12 28 -25 -51 -52 -59 -47 -9 -58 -17 42 241 454 -70 -328 -124 -100 -31 1 21 24 48 52 45 85 111 126 197 270 312 370 402 409 357 321 286 193 104 85 36 24 24 8 33 26 27 35 32 30 46 13 30 20 11 22 34 40 13 33 58 29 20 35 23 -6 25 55 39 55 76 103 84 70 37 39 41 11 57 36 74 129 421 368 -199 -233 -21 12 78 84 92 88 133 154 156 164 189 240 287 332 369 426 475 413 441 370 300 244 144 95 86 79 86 55 126 129 90 122 98 103 108 87 96 91 92 111 106 83 97 113 89 92 92 96 169 134 81 65 68 101 50 65 85 95 151 319 448 -24 -225 -65 11 73 69 77 96 105 108 135 161 147 200 227 281 349 373 415 410 389 353 257 172 105 70 37 34 15 36 30 14 33 33 17 49 45 44 40 16 24 40 24 -15 14 28 17 18 19 65 35 0 8 -3 1 -1 1 -28 17 98 329 380 -128 -234 -75 -21 33 38 19 47 68 66 69 130 133 160 218 269 311 366 382 350 348 311 216 135 83 24 -4 12 -4 0 11 5 8 13 25 0 2 -11 -14 -32 -19 -17 -12 -13 -13 -12 -50 -9 -15 4 54 30 -9 -24 -39 -74 -43 -23 -88 -33 7 320 372 -179 -328 -172 -53 -31 -73 -16 -24 -18 -21 13 30 38 83 127 169 287 295 310 326 279 242 189 79 -6 -41 -76 -71 -73 -104 -65 -103 -86 -93 -99 -73 -85 -93 -92 -123 -108 -103 -110 -130 -117 -112 -126 -117 -133 -129 -127 -121 -68 -34 -61 -97 -147 -132 -103 -142 -102 -145 -95 -20 219 377 -246 -393 -176 -151 -87 -84 -69 -71 -50 -57 -33 1 17 36 89 150 199 263 326 286 274 245 157 78 12 -62 -72 -82 -78 -97 -84 -91 -96 -78 -66 -85 -91 -99 -105 -53 -85 -90 -91 -104 -82 -66 -78 -93 -77 -68 -33 -61 -109 -124 -105 -113 -119 -100 -111 -93 -54 215 257 -353 -439 -215 -151 -93 -103 -66 -55 -51 -63 -41 0 -2 34 69 120 190 248 235 240 211 175 98 20 -73 -98 -111 -132 -133 -135 -98 -77 -107 -107 -107 -107 -120 -108 -132 -130 -151 -136 -118 -145 -120 -137 -124 -128 -105 -121 -189 -161 -168 -180 -135 -174 -168 -103 -40 280 -82 -486 -310 -241 -185 -151 -140 -139 -138 -111 -112 -82 -97 -42 -7 7 106 163 187 185 162 163 91 36 -61 -133 -135 -156 -159 -158 -147 -134 -142 -147 -113 -132 -130 -140 -131 -141 -76 -157 -149 -149 -150 -145 -117 -79 -103 -110 -137 -197 -148 -171 -146 -159 -145 -91 19 311 -95 -470 -309 -196 -151 -129 -140 -118 -103 -124 -90 -67 -70 -13 -12 89 115 164 202 225 155 180 110 22 -69 -99 -128 -157 -160 -145 -173 -150 -148 -148 -154 -162 -138 -175 -165 -148 -128 -161 -146 -136 -149 -139 -154 -138 -148 -117 -73 -62 -120 -144 -148 -149 -143 -139 -136 -141 -114 8 384 150 -363 -321 -173 -132 -120 -120 -80 -90 -77 -65 -67 -14 15 37 87 146 187 241 252 211 190 124 46 9 -107 -119 -126 -137 -121 -125 -142 -100 -107 -134 -131 -102 -103 -130 -122 -147 -108 -144 -142 -137 -139 -145 -143 -123 -133 -137 -88 -38 -143 -137 -108 -146 -121 -135 -132 -170 -95 -57 165 239 -332 -435 -214 -181 -108 -102 -83 -76 -56 -49 -56 -34 -27 23 62 92 175 259 226 222 209 164 76 12 -23 -78 -108 -114 -125 -93 -83 -82 -57 -89 -100 -89 -96 -87 -97 -99 -92 -109 -98 -84 -99 -126 -103 -91 -83 -71 -40 -91 -76 -72 -130 -91 -83 -73 -87 -68 13 217 233 -257 -346 -167 -113 -77 -72 -42 -42 -55 0 9 42 46 69 128 165 212 288 316 342 292 249 165 77 35 0 -52 -47 -41 -53 -57 -45 -60 -45 -73 -25 -48 -64 -55 -57 -61 -73 -107 -68 -64 -94 -76 -56 -78 -33 -34 -54 -83 -85 -73 -83 -92 -73 -81 -74 27 345 190 -300 -301 -164 -112 -73 -65 -45 -57 -24 -13 16 36 46 66 110 176 242 251 276 292 265 218 145 76 28 -61 -46 -70 -72 -74 -63 -60 -57 -59 -84 -73 -59 -64 -48 -55 -56 -75 -71 -62 -67 -78 -60 -88 -66 -70 -60 -43 -49 -76 -49 -37 -28 1 8 -44 -84 -79 -87 -76 -43 -85 -48 23 315 431 -181 -359 -129 -96 -47 -31 -36 -17 0 -22 5 31 55 91 129 172 237 286 322 322 287 265 206 138 62 0 -36 -51 -40 -47 -49 -29 -37 -21 -12 -47 -30 -31 -30 -46 -35 -40 -40 -35 -40 -48 -53 -36 -52 -50 -45 -52 6 -13 -18 48 39 -1 -34 -14 -17 -16 -2 -48 -27 4 102 381 142 -343 -265 -86 -27 -26 6 -20 23 23 41 81 62 102 127 148 258 257 303 343 324 295 233 174 109 36 19 -31 -52 -52 -35 -37 -32 -36 -23 -9 -39 -43 -19 -31 -56 -47 -36 -37 -37 -82 -49 -45 -62 -18 17 -25 -48 -62 -56 -45 -84 -44 -55 -51 7 201 350 -130 -386 -154 -99 -69 -34 -14 6 -2 13 25 29 39 98 138 156 210 273 303 363 287 266 209 135 47 1 -23 -46 -74 -42 -40 -40 -37 -25 -44 -22 -24 -50 -46 -34 -65 -42 -64 -63 -76 -73 -56 -82 -59 -50 -77 -39 -2 -36 -65 -73 -66 -71 -100 -95 -85 -50 -17 268 322 -247 -342 -148 -100 -61 -46 -18 -27 1 -23 22 32 42 88 111 170 244 288 301 324 279 244 200 106 41 -23 -65 -77 -58 -72 -58 -82 -63 -81 -55 -64 -58 -91 -64 -83 -85 -92 -86 -78 -84 -93 -82 -99 -74 -93 -67 -65 -53 -81 -77 -53 -37 -27 15 -14 -72 -76 -49 -79 -63 -83 -54 -3 153 411 -32 -368 -213 -136 -82 -69 -51 -53 -25 -5 -2 12 42 60 103 149 200 270 290 299 302 260 220 157 80 23 -58 -56 -51 -75 -40 -47 -46 -47 -30 -36 -59 -68 -35 -41 -57 -69 -57 -60 -72 -75 -76 -65 -65 -58 -88 -50 -39 -107 -57 -40 -64 -50 -45 -34 -20 -11 18 5 -40 -47 -74 -60 -71 -75 -95 -54 31 240 325 -227 -408 -219 -127 -62 -60 -32 -29 -56 -4 20 17 22 77 107 152 207 243 288 294 278 285 226 161 85 35 -30 -54 -48 -46 -40 -23 -22 -53 -24 -24 -57 -13 -48 -48 -14 -43 -47 -47 -57 -42 -40 
#II[uV]
-21381 -18498 -17155 -14478 -12648 -9056 -8412 -5715 -4308 -1652 -160 -195 -155 -222 -130 -101 -85 -35 -18 24 64 137 198 267 322 332 321 305 192 102 72 -16 -88 -61 -76 -91 -37 -48 -18 -52 -61 -66 -84 -89 -74 -53 -80 -81 -84 -19 26 45 108 161 133 136 12 -125 -144 -137 -124 -136 -141 -153 -142 24 423 451 49 -63 -84 -82 -133 -105 -104 -89 -71 -59 -31 7 32 95 136 209 305 342 343 362 280 290 202 94 47 -23 -54 -24 -47 -33 -35 -4 -48 -22 2 -65 -39 -40 -80 -58 -71 -71 -41 -24 40 38 61 142 170 147 100 -38 -107 -115 -113 -141 -117 -145 -105 -169 180 785 356 -118 -50 -105 -105 -117 -116 -93 -84 -37 -39 -17 31 55 121 202 281 312 365 377 358 343 242 140 52 27 -26 -12 -32 -33 -18 -9 -42 -25 -24 -12 -23 -34 -50 -25 -56 -56 -45 -38 -66 -54 -73 -51 5 26 11 51 122 135 131 89 -53 -97 -113 -89 -129 -95 -128 -85 -146 196 809 383 -64 -1 -75 -66 -76 -66 -52 -15 -11 6 20 65 97 129 172 270 329 344 368 375 328 248 170 95 8 2 7 9 -38 -35 -21 -31 -47 -24 -59 -63 -65 -57 -53 -72 -60 -75 -76 -65 -68 -28 -86 -21 27 40 57 128 143 128 82 -12 -83 -127 -128 -141 -112 -141 -150 -221 137 712 120 -70 -19 -155 -119 -184 -128 -138 -127 -82 -84 -37 -6 29 61 107 164 258 327 344 310 322 264 169 65 12 -32 -59 -53 -51 -41 -34 -75 -65 -40 -26 -86 -100 -88 -74 -75 -107 -97 -14 -62 0 39 129 106 105 82 -65 -153 -165 -189 -188 -160 -197 -143 -245 139 739 114 -105 -46 -169 -137 -141 -149 -112 -85 -65 -51 7 11 64 106 180 232 302 357 399 383 357 252 181 106 34 19 -10 -12 -1 -8 4 7 -6 -19 -30 -9 -29 -45 -31 -32 -52 3 34 43 100 172 182 142 109 -15 -67 -109 -123 -151 -92 -130 -102 -155 162 693 315 -83 -272 -102 -78 -132 -80 -129 -78 -70 -34 -21 27 50 113 181 247 287 371 363 379 298 311 199 88 31 -17 -33 -33 -34 0 -24 -26 -28 -28 -40 -55 -43 -58 -65 -65 -100 -61 -77 -67 -37 35 26 70 140 137 122 83 -64 -103 -110 -130 -143 -106 -186 -104 -168 147 816 409 -97 -62 -122 -145 -126 -111 -105 -74 -73 -47 -17 15 40 91 186 243 270 317 369 356 328 256 143 84 30 -15 -51 -11 -35 -33 -31 -51 -60 -36 -43 -98 -53 -56 -76 -46 -90 -46 -85 -66 -54 -86 -79 -37 -89 28 13 35 113 124 117 142 52 -58 -103 -81 -115 -129 -96 -117 -107 -12 441 474 95 -26 -70 -78 -120 -105 -121 -83 -58 -65 -17 -5 -10 90 104 172 223 272 346 354 336 292 224 136 47 -11 -25 -42 -37 -62 -75 -13 -53 -47 -57 -48 -83 -79 -87 -83 -94 -118 -105 -100 -112 -68 -52 -29 -20 75 98 63 99 -38 -141 -125 -179 -167 -156 -157 -198 -163 -14 427 352 53 -48 -147 -159 -198 -189 -188 -166 -128 -109 -60 -48 -6 32 77 147 210 234 330 317 313 267 150 89 4 -42 -68 -107 -78 -67 -80 -31 -11 -105 -46 -49 -65 -56 -69 -61 -70 -107 -50 10 16 34 141 164 136 143 -19 -110 -98 -128 -120 -133 -108 -120 -102 23 477 527 107 -41 -46 -94 -88 -90 -90 -90 -35 -36 -10 29 81 116 157 194 318 351 417 425 412 317 245 154 92 27 37 -8 8 20 25 13 28 8 9 0 25 1 4 -22 -36 -13 4 -21 51 76 87 140 190 193 187 153 39 -56 -92 -79 -62 -74 -85 -84 -101 206 806 432 -28 -32 -63 -90 -103 -86 -90 -56 -41 -53 0 33 80 84 170 228 305 350 364 363 350 298 190 109 49 -66 -11 -9 -38 -37 -35 -32 -20 -37 -31 -64 -56 -54 -60 -70 -48 -74 -69 -60 -76 -70 -98 -64 -34 -97 -27 -3 18 45 123 141 109 97 -17 -96 -97 -134 -99 -100 -109 -107 -122 97 679 405 -8 1 -84 -112 -97 -100 -96 -73 -49 -43 4 27 52 100 183 208 276 320 347 329 346 311 232 122 85 10 -7 -6 -19 -18 -3 -13 -17 -20 -11 -22 -43 -40 -27 -62 -62 -76 -42 -80 -49 -46 -51 -81 -64 -88 -49 5 42 54 135 128 87 55 -25 -129 -115 -140 -175 -116 -179 -118 -197 188 723 107 -108 -52 -162 -151 -172 -153 -158 -123 -88 -77 -55 -44 30 52 110 148 228 293 305 316 316 232 174 24 -6 -46 -66 -78 -96 -46 -52 -79 -39 -87 -58 -74 -93 -91 -102 -102 -84 -125 -109 -63 -3 -16 25 98 90 90 45 -100 -168 -193 -176 -227 -172 -214 -169 -238 93 698 115 -134 -87 -213 -160 -224 -201 -184 -148 -147 -107 -70 -73 -3 28 77 163 214 295 301 328 311 216 120 53 -4 -53 -79 -104 -79 -66 -94 -62 -62 -81 -59 -59 -72 -75 -102 -88 -83 -103 -95 -29 -4 55 104 85 97 13 -104 -159 -184 -191 -206 -181 -228 -164 -210 138 722 201 -177 -109 -165 -143 -184 -161 -147 -130 -110 -119 -48 -13 -5 78 117 203 253 308 303 336 323 228 136 56 -13 -68 -78 -93 -55 -70 -70 -54 -78 -33 -80 -79 -104 -105 -114 -91 -104 -100 -89 -21 -8 -31 57 108 115 123 45 -80 -128 -152 -186 -158 -136 -220 -148 -211 137 771 357 -149 -140 -126 -166 -196 -138 -156 -134 -119 -82 -68 -62 5 47 89 218 261 300 335 313 304 261 138 26 -10 -62 -62 -63 -82 -107 -93 -100 -75 -102 -67 -98 -123 -113 -133 -121 -92 -124 -119 -122 -119 -125 -92 -22 -33 -7 74 75 83 33 -64 -180 -194 -155 -181 -157 -192 -147 -198 80 665 179 -139 -68 -175 -155 -184 -170 -173 -150 -161 -126 -65 -50 -20 32 82 119 221 273 284 297 276 244 149 50 -19 -55 -64 -62 -89 -76 -86 -92 -82 -72 -78 -95 -110 -117 -117 -98 -90 -101 -103 -50 29 -27 27 126 123 104 9 -72 -142 -154 -158 -197 -123 -209 -194 -239 133 648 -17 -141 -48 -196 -136 -226 -194 -151 -130 -128 -92 -39 -34 -9 27 65 176 255 270 317 314 300 224 136 32 -27 -87 -75 -79 -92 -55 -33 -64 -87 -63 -63 -65 -75 -98 -88 -112 -63 -1 -1 49 114 148 103 78 -3 -143 -178 -163 -163 -145 -168 -177 -163 -17 452 224 -12 -50 -160 -133 -163 -158 -143 -131 -104 -80 -46 -36 14 63 64 178 259 283 342 365 376 329 254 131 44 37 2 -9 -10 -29 20 12 5 48 2 -35 -10 9 -14 144 7 53 68 70 141 191 176 151 38 -64 -169 -129 -101 -108 -118 -120 -120 42 547 428 1 -43 -93 -120 -133 -169 -110 -68 -110 -53 -30 -25 43 47 110 191 249 308 346 350 328 299 197 94 42 -10 -51 -48 -47 -92 -58 -32 -70 -78 -56 -66 -92 -80 -64 -138 -100 -68 -68 -44 0 -9 35 117 139 140 124 -7 -98 -129 -178 -128 -125 -136 -131 -139 -36 402 516 126 -112 -60 -111 -153 -153 -142 -110 -95 -83 -80 -32 28 28 60 142 218 245 282 304 305 264 200 134 8 -37 -46 -81 -65 -59 -64 -52 -79 -74 -69 -54 -61 -113 -95 -95 -66 -106 -97 -107 -145 -71 -26 -7 51 95 67 82 -29 -79 -145 -171 -157 -186 -143 -252 -168 -262 103 708 46 -168 -81 -220 -184 -203 -160 -167 -137 -116 -153 -79 -51 -26 25 56 99 234 261 284 309 255 152 117 59 -42 -71 -89 -100 -70 -87 -71 -71 -72 -81 -69 -91 -70 -79 -91 -80 -88 -77 -53 -25 -3 35 115 138 134 132 43 -46 -105 -156 -105 -123 -89 -156 -86 -129 198 753 211 -124 -31 -108 -107 -134 -94 -94 -89 -30 -3 35 49 84 158 181 252 317 356 395 423 391 296 185 149 80 39 0 43 7 18 29 14 -11 -22 30 12 -32 7 -9 -21 -58 -46 -4 63 26 65 138 173 163 151 57 -56 -154 -132 -126 -137 -122 -152 -147 -134 320 775 230 -145 -100 -141 -184 -150 -141 -163 -129 -93 -76 -34 -34 13 35 112 192 237 269 327 303 288 202 134 41 -34 -66 -78 -94 -83 -88 -75 -87 -87 -129 -97 -97 -97 -83 -107 -121 -103 -127 -116 -151 -127 -131 -161 -122 -130 -155 -71 -55 -56 -6 71 50 45 9 -112 -203 -185 -205 -182 -164 -207 -181 -211 104 724 275 -179 -91 -154 -181 -180 -180 -168 -154 -160 -143 -97 -88 -43 -5 45 107 181 219 253 234 261 207 138 38 -26 -89 -125 -118 -121 -131 -111 -140 -97 -118 -123 -136 -125 -136 -138 -149 -143 -157 -155 -163 -167 -179 -158 -186 -159 -115 -82 -47 29 31 50 33 -68 -142 -168 -202 -177 -196 -198 -237 -194 -147 285 492 44 -127 -133 -176 -214 -192 -192 -174 -147 -137 -75 -108 -55 -23 14 105 135 196 281 285 284 249 202 117 45 -20 -50 -92 -80 -93 -62 -88 -65 -77 -51 -90 -86 -87 -76 -125 -85 -96 -69 -53 -14 -14 75 117 148 119 72 -56 -125 -150 -110 -166 -104 -152 -126 -188 157 716 205 -92 21 -119 -89 -132 -79 -85 -65 -36 -1 1 37 83 134 160 224 290 372 445 406 408 365 267 189 105 82 35 21 26 58 49 74 64 58 55 64 25 33 21 13 12 24 -13 -2 3 65 88 123 184 206 206 198 129 11 -56 -55 -76 -91 -68 -72 -68 -120 227 866 463 -27 2 -33 -79 -79 -71 -59 -43 -36 -5 25 36 94 105 179 258 313 361 425 379 400 352 267 165 97 20 20 15 25 12 11 -2 -1 -1 25 -16 -16 -15 -20 -44 -31 -64 -28 -50 -45 -58 -62 -46 -49 -37 13 43 52 67 149 147 146 122 59 -73 -65 -65 -81 -88 -76 -81 -61 85 605 515 93 -1 -11 -71 -97 -81 -78 -56 -10 -24 20 24 71 91 150 201 287 317 352 374 383 344 301 207 137 24 25 3 11 15 12 2 19 18 12 -24 -31 -21 -8 -32 -42 -49 -37 -60 -74 -62 -39 -65 -56 -60 -32 -22 -66 -40 -17 -17 52 39 64 132 163 136 72 -18 -61 -118 -97 -116 -98 -177 -80 -153 182 733 162 -27 -11 -152 -92 -179 -103 -126 -126 -86 -57 -70 -17 11 48 106 164 208 281 334 347 385 359 282 185 109 39 -8 -14 -6 -14 -4 -5 -22 12 -18 -20 -5 -29 -42 -19 -42 -30 -52 -52 -52 25 
#III[uV]
-27351 -23863 -21973 -18462 -16487 -12043 -10573 -7112 -5403 -1937 -161 -211 -170 -195 -157 -159 -148 -139 -140 -137 -130 -98 -86 -65 -31 -4 28 63 32 31 1 -15 -40 -38 -47 -78 -23 -43 -18 -37 -37 -35 -37 -30 -41 -19 -42 -43 -19 25 64 82 164 199 129 118 34 -46 -113 -93 -78 -102 -92 -111 -150 -131 93 411 342 123 5 -68 -129 -108 -130 -95 -101 -68 -66 -45 -46 -35 -19 -20 1 33 54 90 80 125 96 85 48 23 24 24 25 25 12 21 13 22 21 20 9 9 -26 -1 0 -1 13 21 77 75 131 176 173 121 73 -4 -52 -71 -89 -89 -68 -94 -94 -218 -111 480 561 165 42 -43 -92 -109 -111 -101 -99 -79 -100 -87 -64 -67 -55 -42 -16 6 31 49 84 110 98 89 35 35 -3 24 0 21 5 5 1 0 -13 8 -20 5 -17 10 -24 -16 -22 9 -29 -7 -38 -15 16 68 70 109 155 158 99 82 -23 -59 -78 -41 -79 -54 -63 -52 -184 -141 411 545 213 85 -31 -58 -73 -77 -74 -61 -65 -65 -55 -44 -65 -43 -66 -41 -33 4 29 65 80 91 75 45 31 14 8 21 -3 19 7 -4 -13 -3 -27 -6 -28 -30 -42 -31 -28 -34 -31 -35 -49 -12 -24 3 45 66 80 166 145 87 57 2 -77 -78 -91 -108 -81 -119 -101 -239 -137 378 326 296 122 -79 -104 -147 -130 -138 -128 -128 -125 -104 -105 -80 -101 -87 -89 -54 -30 12 53 81 67 65 36 25 -2 10 -19 -4 -12 3 -25 -4 -6 -21 -26 -15 -29 -15 -30 -30 -33 19 24 61 97 198 155 125 97 4 -78 -92 -107 -109 -98 -123 -94 -227 -86 415 308 279 109 -58 -88 -131 -118 -111 -117 -88 -87 -51 -62 -50 -40 -38 -21 1 23 78 100 146 100 -1 96 67 53 33 46 15 41 49 37 31 32 41 43 31 29 15 15 -3 86 75 92 167 219 227 158 158 40 -16 -52 -52 -66 -42 -55 -36 -145 -15 351 441 286 -135 22 -7 -87 -46 -84 -63 -72 -33 -53 -22 -23 0 -23 15 11 73 67 127 83 109 112 88 77 52 32 45 50 50 24 24 24 28 17 17 10 23 9 0 0 15 -10 10 50 109 87 152 217 194 118 118 25 -10 -29 -41 -50 -30 -57 -43 -151 -95 490 633 255 119 17 -40 -52 -54 -52 -52 -41 -23 -23 -12 -3 13 2 16 43 64 97 139 150 161 147 132 127 89 68 78 77 78 66 77 63 75 50 63 63 62 46 58 23 56 25 48 51 52 25 53 35 120 119 131 198 245 181 170 89 33 -11 -16 -9 -26 -11 -33 -67 -75 49 406 507 232 70 20 -46 -24 -47 -22 -37 -10 -10 -8 -7 4 -13 15 25 36 77 122 135 158 157 153 129 111 86 64 89 101 59 85 57 72 60 70 55 61 47 51 49 48 35 47 33 57 105 149 138 224 224 172 170 93 20 -3 -32 -18 -34 2 -60 -81 -27 197 427 529 254 43 -7 -70 -60 -73 -61 -39 -46 -17 -21 4 -9 8 29 43 55 93 122 178 165 165 140 115 104 85 59 86 75 87 95 100 101 91 90 87 104 102 79 89 89 116 180 197 197 311 311 245 235 162 74 37 20 32 -1 35 0 4 4 217 511 483 226 130 33 13 -7 10 9 21 21 33 34 65 44 73 60 100 100 158 170 218 207 196 164 186 122 135 109 137 113 135 112 113 102 114 86 109 79 103 83 102 77 90 80 148 178 190 214 286 266 194 191 119 42 31 7 34 10 20 -3 -77 -16 498 641 338 162 78 -15 -23 -26 -36 -34 -8 -25 -1 -10 0 0 -2 10 31 52 104 98 138 138 135 93 79 65 59 45 40 37 53 38 51 28 45 21 21 21 25 10 23 13 13 1 -1 -1 -14 5 13 2 58 59 75 92 170 165 121 68 8 -45 -45 -75 -52 -90 -50 -89 -164 -144 225 475 319 125 15 -81 -98 -121 -121 -121 -102 -88 -81 -84 -74 -96 -86 -104 -94 -82 -61 -27 25 25 39 17 0 -25 -31 -31 -28 -51 -29 -41 -52 -53 -42 -69 -57 -70 -47 -74 -85 -110 -83 -93 -82 -104 -80 -101 -100 -111 -42 -19 -12 15 79 52 -16 -29 -96 -167 -154 -181 -187 -174 -215 -193 -327 -233 354 307 124 -31 -174 -230 -257 -246 -247 -256 -243 -234 -219 -233 -210 -235 -221 -221 -197 -181 -107 -124 -53 -67 -69 -120 -102 -133 -145 -165 -151 -172 -181 -170 -161 -186 -162 -183 -181 -188 -194 -195 -195 -232 -193 -161 -117 -105 -66 6 -5 -78 -89 -182 -234 -261 -277 -278 -238 -299 -265 -389 -225 250 140 90 -21 -224 -234 -294 -279 -281 -253 -255 -242 -231 -221 -204 -199 -203 -186 -158 -119 -109 -61 -41 -41 -52 -51 -75 -90 -114 -119 -116 -97 -109 -95 -96 -98 -109 -105 -116 -116 -118 -112 -123 -127 -79 -43 -33 37 86 66 32 -21 -104 -167 -180 -193 -205 -182 -199 -181 -308 -190 342 329 57 -33 -143 -176 -223 -180 -194 -199 -176 -188 -178 -147 -165 -139 -151 -108 -112 -74 -47 -12 11 12 1 -27 -37 -63 -91 -88 -55 -81 -76 -62 -92 -58 -80 -82 -92 -91 -82 -72 -86 -88 -76 -8 4 19 66 123 110 68 15 -71 -103 -112 -112 -115 -112 -131 -114 -219 -182 399 536 179 32 -73 -134 -122 -122 -131 -116 -98 -96 -99 -101 -78 -80 -80 -68 -34 -10 8 33 61 71 58 33 31 13 8 9 21 -42 10 -14 17 -3 5 -13 -30 -21 -9 -12 11 -13 10 -4 -6 1 25 111 96 120 195 143 118 94 33 -32 -62 -51 -39 -55 -47 -52 -178 -139 288 426 254 107 -24 -67 -100 -100 -102 -99 -104 -93 -66 -67 -57 -57 -68 -80 -41 -53 -1 23 31 86 71 38 42 17 17 16 8 8 4 3 -3 -5 7 -3 -10 -12 -64 -12 0 -10 1 31 96 51 121 204 191 138 71 36 -18 -48 -44 -78 -22 -98 -101 -185 -81 390 336 297 166 -44 -42 -122 -127 -95 -78 -65 -51 -40 -31 -44 -41 -54 -13 7 34 76 103 125 126 115 106 71 24 56 54 42 43 43 43 20 43 43 55 32 33 42 39 72 117 143 170 252 273 232 184 118 46 -17 4 16 -9 6 -8 -59 23 171 307 474 259 81 51 -11 -17 -4 6 6 31 36 60 57 70 57 71 96 96 157 203 213 237 218 192 178 172 158 150 147 117 154 154 152 161 134 95 129 140 127 220 164 203 217 220 287 308 256 255 148 72 27 19 69 38 40 25 -29 23 236 523 471 265 103 30 -4 -28 8 34 14 36 37 45 56 59 21 76 84 106 121 194 147 189 174 164 141 118 106 111 97 81 92 115 77 76 105 71 82 85 83 -10 60 77 68 104 138 144 173 266 257 213 187 113 46 19 -28 14 13 0 9 -25 -44 17 365 489 208 113 21 -32 -32 -62 -19 -18 -18 -13 -18 13 -8 -27 -4 30 3 30 92 114 140 153 125 116 82 80 56 55 66 77 48 27 60 62 48 41 17 26 51 42 38 44 30 -6 74 116 116 185 233 156 120 114 57 -37 -25 -35 -51 -11 -82 -73 -204 -62 469 378 266 133 -38 -76 -101 -77 -90 -80 -67 -96 -44 -23 -49 -37 -36 -75 -24 34 61 99 90 75 105 82 35 36 24 25 23 -4 11 -13 17 18 20 5 17 17 7 11 21 21 30 73 123 139 207 221 205 172 134 30 -32 -26 -13 -39 -16 -68 -17 -142 -19 520 468 222 135 4 -30 -61 -52 -52 -34 -31 -12 -7 2 15 30 15 40 29 39 52 130 141 131 108 113 81 92 47 85 60 76 75 75 34 51 56 61 31 62 48 40 15 60 63 127 121 142 194 252 196 185 112 26 -68 -58 -43 -45 -48 -70 -73 -162 -24 585 530 156 64 -29 -111 -85 -95 -106 -104 -79 -93 -70 -80 -53 -75 -63 -50 -13 -7 34 37 70 57 58 13 26 -20 -7 -21 -8 -24 -14 -30 -27 -44 -23 -37 -32 -34 -52 -65 -27 -56 -53 -83 -49 -71 -73 -55 -59 -95 -27 -5 19 43 108 79 44 0 -68 -118 -106 -117 -106 -121 -121 -133 -235 -210 293 457 179 37 -57 -134 -149 -144 -151 -153 -137 -148 -129 -143 -135 -135 -126 -130 -104 -103 -68 -52 -3 0 0 -24 -25 -52 -74 -77 -73 -81 -81 -102 -76 -105 -75 -106 -93 -105 -92 -114 -103 -116 -120 -122 -118 -125 -122 -133 -109 -69 -30 -53 42 49 1 -5 -67 -107 -154 -185 -160 -193 -149 -209 -199 -249 -96 350 387 137 -47 -148 -187 -199 -171 -197 -171 -178 -156 -170 -157 -151 -134 -153 -121 -106 -61 -38 -11 16 28 8 8 -40 -19 -40 -28 -58 -24 -55 -29 -53 -41 -51 -42 -68 -45 -69 -38 -59 -31 -15 67 35 121 179 166 101 98 -7 -62 -93 -65 -81 -59 -97 -75 -196 -44 366 336 294 175 -19 -20 -97 -65 -91 -63 -50 -26 -28 -1 -14 -3 3 14 16 68 82 118 141 155 132 142 104 106 81 96 69 99 89 112 90 102 77 89 75 80 55 78 54 88 49 73 76 122 171 182 234 284 245 201 165 77 16 10 -5 8 27 13 -18 -103 -40 543 711 315 151 66 -17 -32 -52 -31 -45 -12 -27 -6 -5 5 -6 8 14 25 59 101 99 156 152 161 123 120 85 97 73 98 70 94 61 79 54 89 41 74 48 62 41 61 22 49 34 47 23 36 28 44 30 78 97 133 144 203 185 174 107 73 0 10 -15 -2 -24 6 -26 -58 -68 194 547 462 212 124 11 -27 -29 -24 -31 -4 -21 8 -17 11 -11 1 1 17 27 52 72 123 123 144 126 114 83 81 55 87 56 59 48 66 49 49 35 36 14 33 25 26 8 22 11 0 14 26 0 2 28 17 16 41 16 22 46 103 85 99 153 174 118 67 21 -13 -44 -36 -45 -22 -81 -26 -184 -57 408 389 381 208 -25 -29 -119 -70 -96 -69 -82 -77 -88 -39 -65 -58 -45 -42 -34 -7 40 69 99 132 120 99 73 70 46 34 39 26 19 17 30 36 6 37 7 18 6 -5 0 16 -4 5 -9 65 
#avR[uV]
7705 6567 6168 5247 4404 3034 3125 2158 1606 683 79 89 69 124 51 21 11 -34 -51 -93 -129 -186 -242 -299 -337 -335 -307 -273 -176 -86 -71 8 68 41 52 52 26 26 9 33 42 48 65 73 54 43 58 59 75 32 5 -4 -25 -62 -68 -76 4 102 88 90 85 85 95 97 67 -90 -376 -246 121 124 86 47 68 51 38 41 20 24 -1 -29 -55 -113 -146 -219 -304 -325 -316 -317 -240 -227 -154 -52 -23 35 66 37 60 46 42 15 55 34 8 75 44 45 67 57 70 70 47 34 -1 -1 3 -54 -83 -86 -63 36 81 79 68 96 83 98 58 60 -236 -545 -76 201 72 83 59 63 60 43 34 -1 -10 -26 -64 -89 -149 -223 -290 -308 -349 -353 -316 -287 -192 -95 -34 -9 25 24 32 44 20 11 43 25 17 16 13 37 41 31 44 48 34 42 52 50 53 43 2 7 24 3 -45 -56 -81 -48 42 67 74 68 90 67 96 59 54 -266 -604 -110 171 43 59 36 39 28 14 -15 -21 -39 -47 -87 -130 -151 -205 -291 -346 -342 -353 -342 -288 -202 -132 -73 7 4 -3 1 37 44 25 29 40 23 45 60 51 42 31 56 45 58 60 47 44 22 74 23 -4 -7 -16 -45 -70 -84 -54 14 44 88 82 87 71 81 99 101 -206 -523 42 218 80 115 67 110 63 69 63 18 21 -14 -45 -70 -112 -150 -209 -285 -342 -338 -284 -281 -231 -136 -47 0 30 64 43 49 35 36 63 63 36 15 73 93 74 66 60 92 81 24 74 31 9 -30 -28 -42 -33 68 114 119 135 133 110 135 96 131 -182 -532 40 244 101 140 93 76 90 56 26 20 8 -33 -43 -89 -126 -200 -243 -301 -345 -360 -333 -284 -202 -182 -58 -1 7 26 35 9 29 20 11 22 35 50 30 45 60 39 40 50 40 3 3 -16 -62 -68 -63 -30 35 58 83 97 118 70 102 84 83 -170 -517 -94 226 204 113 74 88 56 87 47 34 17 -5 -39 -61 -113 -193 -240 -281 -334 -329 -316 -256 -256 -142 -44 7 44 49 55 59 26 37 38 40 42 49 64 48 70 70 65 100 69 72 72 62 18 17 5 -31 -40 -63 -24 77 98 95 109 117 91 158 82 93 -194 -571 -92 225 122 130 125 99 84 79 47 53 36 6 -21 -42 -84 -185 -235 -248 -285 -320 -286 -253 -176 -69 -17 33 60 85 51 74 73 64 89 92 73 68 130 85 87 100 75 102 74 97 91 80 113 92 63 107 32 46 30 -14 -1 -27 -57 -7 75 98 72 110 116 91 100 73 -25 -416 -271 158 142 105 88 97 93 97 72 39 60 12 0 6 -88 -110 -164 -210 -254 -307 -293 -268 -212 -145 -60 16 67 68 74 82 113 105 56 81 84 88 83 111 110 111 109 119 143 123 124 129 97 105 104 89 36 13 22 -14 85 152 124 162 158 139 159 168 122 0 -328 -138 211 175 168 156 162 158 151 135 108 86 51 37 8 -36 -73 -132 -189 -207 -283 -256 -224 -184 -67 -18 53 94 111 137 121 105 123 78 62 156 91 95 108 109 120 101 115 152 108 79 82 63 13 -8 -13 -25 100 147 117 138 137 132 125 120 105 -21 -368 -271 133 154 111 110 94 86 95 94 46 46 27 -12 -48 -94 -120 -164 -268 -300 -338 -340 -303 -213 -147 -71 0 33 30 63 60 36 42 43 28 42 47 42 29 38 47 64 87 51 40 61 23 12 7 -33 -47 -59 -90 -57 20 77 107 83 79 79 95 83 62 -215 -556 -111 197 114 102 83 91 73 72 38 37 40 -1 -38 -80 -85 -171 -222 -289 -324 -312 -314 -281 -228 -122 -62 -9 99 41 32 58 56 62 51 46 52 54 75 66 65 73 75 60 81 75 61 76 69 90 67 41 98 56 33 18 1 -38 -58 -48 -62 21 74 74 96 73 54 84 62 39 -169 -567 -167 168 61 92 72 48 39 35 12 -1 -1 -44 -69 -89 -149 -226 -260 -323 -361 -378 -343 -334 -298 -213 -113 -85 -23 -8 -9 5 -7 -11 -7 -8 -6 -9 -12 15 5 3 25 19 21 1 33 7 -5 10 30 14 32 27 -15 -48 -47 -95 -102 -95 -69 -22 46 38 49 82 29 71 22 34 -305 -545 46 170 36 75 36 43 30 34 -4 -32 -39 -54 -72 -135 -170 -221 -259 -327 -384 -359 -379 -343 -266 -209 -84 -44 -19 -6 -4 20 -39 -38 -5 -41 -5 -22 -16 2 -2 5 4 -13 9 13 -17 -54 -36 -59 -95 -93 -130 -90 9 51 62 37 88 53 64 36 43 -206 -573 -45 180 76 101 43 77 61 43 21 19 -14 -45 -36 -98 -127 -179 -256 -293 -355 -355 -358 -332 -237 -146 -79 -32 7 22 44 21 18 39 14 14 32 4 6 14 17 42 32 21 39 55 7 -11 -36 -61 -52 -81 -24 52 75 94 94 104 90 128 73 55 -233 -551 -36 206 92 93 55 73 70 50 30 21 25 -41 -60 -77 -148 -193 -257 -310 -345 -326 -342 -317 -222 -135 -70 -5 36 32 48 27 29 32 22 32 3 40 38 58 60 73 55 61 56 51 17 10 40 -24 -46 -60 -89 -37 45 76 96 130 101 79 154 91 101 -229 -571 -88 239 156 89 98 134 77 90 76 70 34 19 12 -44 -87 -129 -253 -278 -305 -331 -296 -273 -225 -108 -9 26 69 67 68 93 86 98 93 84 101 70 92 108 103 128 114 98 117 124 120 116 125 105 78 81 67 23 -3 -24 13 81 163 163 129 161 130 169 121 109 -149 -521 33 266 122 163 121 134 119 122 100 109 80 31 16 -7 -61 -116 -159 -242 -299 -285 -286 -260 -200 -114 -31 40 63 73 70 93 80 88 94 80 69 82 93 105 111 85 91 90 96 104 66 18 52 32 -24 -27 -35 26 91 133 129 135 158 111 160 143 146 -174 -453 185 290 132 173 114 164 130 103 90 96 66 19 18 -12 -48 -92 -183 -251 -253 -279 -263 -238 -161 -78 20 62 99 104 106 113 77 55 86 97 85 85 92 92 115 109 132 99 60 73 35 11 -12 12 13 62 166 170 165 171 140 171 172 133 28 -366 -70 249 180 201 159 157 149 141 135 108 96 64 66 13 -28 -36 -142 -211 -235 -264 -263 -269 -210 -145 -34 44 48 76 84 84 88 57 65 70 32 65 83 75 60 78 -33 75 48 40 40 2 -37 -48 -23 35 101 183 139 136 127 138 133 106 -31 -429 -166 234 176 144 136 131 155 114 85 117 72 48 47 -14 -17 -99 -153 -207 -255 -285 -253 -254 -205 -110 -12 28 69 104 104 96 133 104 90 109 116 109 102 134 122 106 133 130 107 102 96 69 82 51 15 -10 -33 -30 64 121 138 163 135 132 136 136 127 13 -393 -333 118 216 116 121 137 137 111 100 86 74 74 23 -21 -32 -73 -144 -203 -243 -267 -258 -247 -194 -123 -72 49 78 86 109 93 92 103 76 93 104 100 78 82 121 108 121 87 125 119 122 142 108 84 65 40 21 10 -22 86 108 127 158 139 161 137 211 131 160 -134 -473 143 302 147 201 146 153 121 121 97 83 105 56 39 1 -44 -74 -137 -246 -243 -253 -259 -210 -114 -65 -18 60 90 102 112 81 85 76 64 80 90 79 94 79 88 95 86 98 87 69 62 64 34 -12 -27 -31 -45 24 61 89 143 98 103 81 122 77 58 -207 -493 22 235 99 111 92 103 68 68 72 15 -2 -39 -47 -77 -143 -173 -232 -303 -336 -369 -357 -320 -231 -131 -92 -40 6 24 -1 22 19 8 23 28 48 -2 17 48 24 33 41 65 77 36 0 33 5 -40 -47 -64 -58 -1 69 119 102 104 114 97 117 111 53 -333 -483 34 223 132 126 128 107 93 110 76 53 30 -1 -6 -40 -72 -144 -217 -244 -273 -309 -284 -253 -174 -105 -35 48 56 74 83 79 75 67 72 73 106 85 78 80 65 81 89 89 99 89 109 103 95 125 94 100 107 57 52 66 27 -17 -10 -23 -9 78 144 132 146 129 104 146 115 94 -210 -578 -46 269 110 125 114 106 108 92 77 91 68 33 16 -23 -62 -108 -172 -234 -271 -287 -261 -263 -206 -138 -50 13 63 88 79 84 90 70 88 59 65 85 83 78 83 92 92 92 99 95 101 107 116 97 119 105 80 67 20 -8 -6 -49 -36 34 88 91 109 96 99 123 132 94 22 -333 -317 149 196 109 102 120 92 106 75 62 48 -2 23 -23 -51 -81 -182 -196 -249 -312 -305 -289 -241 -188 -113 -41 0 40 72 66 64 49 60 51 50 30 65 65 53 54 90 66 66 53 45 48 32 -15 -27 -65 -68 -23 52 94 103 78 125 74 104 88 90 -179 -533 -37 239 66 109 79 83 46 39 34 11 -12 -15 -38 -91 -136 -158 -217 -281 -338 -404 -346 -337 -287 -201 -118 -53 -29 5 26 7 -9 -4 -18 -19 -7 -16 -20 12 6 6 25 14 20 38 39 35 -4 -2 -32 -66 -64 -83 -97 -46 26 65 60 74 96 82 79 59 69 -248 -594 -107 185 72 67 70 62 44 43 21 29 -8 -29 -39 -91 -108 -175 -251 -300 -331 -375 -329 -322 -276 -186 -103 -36 22 28 21 23 22 35 33 41 28 19 37 54 39 51 65 62 75 53 67 69 70 80 60 71 52 25 5 14 5 -47 -55 -59 -69 -22 73 71 57 80 75 80 68 32 -119 -508 -241 137 107 74 77 83 66 65 40 7 13 -16 -33 -65 -97 -150 -200 -278 -303 -325 -338 -322 -282 -229 -144 -80 17 15 23 32 12 17 21 14 5 11 42 49 28 24 45 55 53 48 66 75 69 52 65 57 74 41 31 87 49 29 41 -1 2 -14 -55 -76 -77 -39 29 54 96 79 94 87 136 67 60 -211 -529 32 218 115 139 77 120 68 77 91 45 18 26 -2 -44 -77 -129 -186 -225 -285 -314 -312 -335 -292 -221 -135 -72 -4 31 31 26 27 13 13 37 6 21 39 9 39 45 16 43 38 49 54 47 7 
#avL[uV]
16660 14613 13395 11223 10163 7515 6367 4255 3249 1111 81 114 93 84 92 108 105 121 131 149 162 167 186 199 192 171 132 89 63 19 35 6 -3 8 9 32 4 19 9 10 6 2 -4 -13 3 -7 2 2 -22 -35 -51 -59 -110 -118 -62 -50 -28 -16 40 25 15 34 22 35 79 143 118 -185 -317 -155 -47 27 63 55 78 50 65 38 50 48 62 82 87 125 150 137 116 91 59 19 5 -37 -24 -35 -51 -37 -49 -42 -30 -24 -38 -33 -20 -53 -29 -29 -13 -27 -34 -34 -34 -33 -57 -55 -100 -104 -88 -48 -23 -15 -1 13 33 19 9 21 41 133 202 -87 -382 -225 -68 -9 40 50 53 54 56 60 80 78 80 94 116 143 157 149 151 139 94 60 22 -19 -9 -22 -10 -30 -16 -38 -14 -9 -23 -13 1 -14 9 -22 -7 -23 -4 -11 0 -28 -4 -19 2 -9 -13 -54 -64 -83 -93 -90 -33 -38 -3 11 21 -3 14 7 0 9 111 239 -6 -354 -245 -86 -6 25 35 43 48 53 59 69 65 77 114 108 152 176 198 167 154 121 83 32 9 2 -27 -13 -4 -17 -15 -37 -18 -10 -10 -9 -1 -25 -4 1 15 -4 -1 -3 -6 2 14 -1 -18 -14 -32 -46 -52 -102 -73 -22 -16 -9 35 14 27 37 25 48 26 129 206 -22 -266 -331 -132 1 44 55 66 69 64 86 83 85 102 95 132 140 171 183 193 160 101 79 65 18 -3 -19 -13 -39 -7 -21 -8 -20 -12 -28 -13 8 -17 -34 -15 -21 -7 -23 -15 -27 -55 -61 -78 -133 -102 -72 -56 -37 2 9 12 15 18 25 22 105 156 -45 -251 -331 -132 -25 19 60 43 55 75 56 61 55 68 82 93 129 137 149 155 121 91 32 25 92 -43 -49 -43 -38 -53 -16 -45 -47 -34 -34 -42 -56 -48 -46 -52 -31 -31 -22 -84 -58 -71 -117 -133 -136 -87 -103 -48 -16 -2 -9 -9 -3 -9 -15 67 96 -4 -283 -328 0 -73 -31 21 6 19 23 37 15 43 36 48 56 114 108 131 112 114 62 65 46 -12 -44 -61 -61 -49 -62 -67 -51 -36 -37 -38 -42 -37 -45 -31 -52 -42 -32 -50 -46 -28 -43 -69 -91 -74 -117 -147 -126 -57 -76 -58 -41 -25 -23 -20 -22 -36 -8 67 168 -82 -428 -304 -151 -78 -32 -10 -1 0 15 4 0 14 19 24 32 90 105 91 94 87 38 13 -32 -75 -90 -112 -97 -94 -84 -95 -95 -82 -102 -93 -93 -72 -112 -90 -90 -84 -81 -69 -79 -67 -82 -78 -96 -65 -71 -80 -106 -112 -113 -141 -183 -122 -98 -63 -62 -40 -23 -48 -38 -36 -25 13 69 171 -169 -460 -245 -105 -59 -13 -28 -13 -19 7 -22 2 6 2 41 65 71 85 99 95 55 32 -12 -45 -84 -105 -117 -99 -85 -108 -132 -97 -91 -83 -96 -89 -94 -97 -101 -91 -93 -97 -107 -88 -97 -89 -91 -132 -164 -148 -186 -174 -140 -120 -112 -91 -59 -56 -65 -44 -81 -38 0 20 16 -251 -503 -278 -117 -72 -28 -33 -20 -21 -24 -8 -12 -2 -7 25 30 43 62 62 72 36 -21 -31 -89 -96 -113 -125 -119 -113 -125 -109 -127 -110 -106 -154 -114 -115 -119 -133 -136 -110 -125 -143 -141 -175 -189 -179 -240 -229 -177 -163 -172 -129 -87 -85 -93 -64 -89 -60 -55 7 21 -247 -429 -246 -153 -80 -57 -37 -55 -54 -39 -39 -39 -20 -24 13 5 36 59 74 50 42 -12 -48 -73 -87 -140 -108 -116 -113 -133 -102 -122 -105 -99 -98 -109 -86 -97 -79 -101 -95 -120 -83 -88 -91 -123 -140 -146 -144 -191 -170 -100 -115 -99 -70 -77 -47 -65 -47 -63 -39 27 120 -95 -425 -352 -179 -110 -30 -28 -17 -8 6 -11 -1 1 27 40 42 87 103 121 122 77 83 36 10 -40 -38 -55 -98 -65 -50 -59 -56 -71 -54 -61 -47 -61 -53 -49 -48 -56 -45 -47 -50 -48 -31 -36 -33 -34 -37 -30 -51 -72 -61 -65 -70 -108 -95 -67 -20 -16 -2 -3 7 2 40 -4 35 103 192 114 -272 -323 -125 -58 24 50 71 73 85 77 66 83 97 100 147 178 208 232 242 235 192 148 130 76 43 43 31 27 28 18 42 28 34 44 43 36 58 35 50 34 43 54 72 61 53 57 81 55 60 68 67 17 22 33 12 -12 12 60 56 83 102 96 111 99 116 126 133 228 327 7 -253 -179 5 93 154 171 169 167 195 198 195 191 211 225 261 277 295 311 328 260 282 211 184 156 132 98 109 112 126 103 149 155 130 141 142 133 146 134 142 143 144 153 169 138 129 115 97 79 43 50 124 112 131 150 165 189 164 152 192 180 270 272 98 -82 -158 -22 118 154 182 178 188 179 182 189 196 184 202 213 242 267 265 267 259 225 197 149 112 78 73 64 74 67 76 63 62 64 65 58 79 75 80 78 67 68 81 75 32 29 31 -10 -33 -23 16 28 52 87 88 97 101 92 85 99 203 260 19 -229 -146 -20 61 104 130 100 120 133 121 128 154 140 163 179 210 210 239 228 198 180 150 101 66 55 30 29 51 42 28 46 41 35 52 42 39 42 40 38 25 26 34 37 31 -2 -8 -35 -37 -69 -52 -6 7 30 39 36 19 36 44 21 40 113 251 -13 -357 -254 -102 10 51 24 53 53 48 38 55 65 69 81 103 125 177 164 160 158 122 90 58 10 -20 -36 -45 -39 -41 -62 -11 -57 -35 -55 -48 -39 -36 -31 -35 -56 -47 -57 -48 -70 -56 -52 -63 -71 -122 -112 -123 -158 -105 -76 -77 -65 -57 -34 -25 -51 -23 -49 -21 78 179 44 -336 -324 -141 -63 -10 7 15 15 24 23 29 33 42 46 73 109 140 152 190 144 125 107 35 3 -12 -52 -44 -49 -47 -52 -46 -47 -49 -37 -30 -46 -44 -44 -46 5 -36 -44 -40 -53 -57 -81 -65 -107 -141 -130 -85 -66 -73 -52 -28 -34 -20 -39 -6 4 65 148 -66 -344 -368 -191 -53 -25 9 30 20 13 0 5 20 14 39 55 87 101 120 100 82 54 25 -13 -47 -89 -84 -67 -94 -94 -88 -71 -60 -75 -64 -75 -75 -88 -70 -82 -86 -95 -104 -118 -144 -145 -194 -199 -180 -144 -120 -118 -72 -86 -98 -62 -90 -80 -22 -31 54 -195 -480 -284 -161 -118 -70 -61 -67 -72 -59 -72 -59 -78 -50 -38 -25 17 33 45 14 -20 -25 -72 -91 -127 -156 -153 -157 -154 -152 -132 -144 -148 -149 -137 -133 -113 -135 -135 -134 -148 -161 -176 -183 -185 -216 -213 -167 -179 -129 -105 -112 -84 -120 -92 -99 -85 -31 -1 37 -309 -471 -287 -150 -91 -62 -56 -63 -68 -69 -63 -52 -57 -35 -35 33 19 39 47 51 -19 16 -39 -75 -117 -120 -123 -132 -136 -121 -127 -121 -131 -113 -115 -133 -105 -128 -125 -116 -59 -110 -112 -102 -126 -139 -149 -156 -207 -187 -143 -125 -117 -95 -83 -60 -79 -76 -67 -75 -44 26 183 -107 -426 -264 -143 -77 -44 -44 -8 -35 -29 -23 -27 1 0 23 57 75 78 118 110 59 38 -7 -53 -58 -112 -100 -103 -97 -88 -95 -109 -74 -67 -97 -96 -75 -72 -74 -74 -99 -75 -91 -93 -84 -66 -110 -129 -119 -159 -185 -122 -79 -129 -97 -35 -60 -43 -42 -60 -43 -10 73 114 -115 -355 -350 -173 -71 -15 0 -3 7 12 9 20 5 -1 36 49 64 125 142 96 80 54 37 0 -46 -52 -57 -72 -69 -75 -58 -39 -46 -22 -53 -59 -55 -50 -52 -57 -53 -51 -65 -59 -57 -86 -124 -121 -149 -152 -138 -106 -112 -53 -20 -51 -38 -22 -28 -9 -25 77 118 -143 -363 -284 -151 -59 -23 -5 5 5 -10 16 10 24 21 27 48 74 85 129 138 145 80 53 17 -15 -39 -40 -72 -47 -63 -57 -67 -60 -68 -39 -62 -40 -54 -48 -59 -53 -51 -44 -83 -66 -95 -108 -109 -125 -165 -114 -109 -83 -54 -8 -7 -19 -23 -12 -5 0 95 185 -197 -415 -229 -114 -41 19 9 24 24 40 32 54 53 63 60 92 119 146 132 141 128 114 74 44 9 7 -44 -12 -31 -25 -32 -19 -22 -13 -16 -19 -25 -11 -15 -7 -1 4 -23 -7 -4 7 -14 5 -7 -5 -5 17 -8 -22 -47 -46 -72 -53 -21 3 11 16 13 14 15 39 17 42 129 263 69 -319 -269 -83 -19 43 58 53 67 76 57 76 80 99 113 132 149 184 195 212 195 169 134 102 68 43 12 7 11 18 13 16 26 32 27 46 14 38 31 37 23 39 31 38 42 41 34 36 43 40 29 12 -11 29 -27 -34 23 22 33 36 70 84 71 95 50 91 102 176 238 -104 -365 -201 -19 60 80 102 75 110 97 110 118 116 130 139 141 206 189 204 202 181 153 108 72 50 14 30 -5 -5 -12 11 -6 11 -3 14 15 5 0 24 6 6 -4 11 -2 -11 -74 -42 -83 -120 -92 -41 -61 -20 0 18 10 -1 7 21 12 101 122 -8 -233 -340 -164 -39 -24 31 25 48 30 32 25 28 20 56 70 76 98 128 117 140 84 62 26 1 -47 -51 -64 -63 -85 -56 -69 -64 -74 -57 -73 -50 -56 -62 -63 -45 -71 -48 -76 -56 -74 -75 -89 -126 -120 -142 -181 -142 -101 -101 -71 -45 -38 -32 -54 -61 -49 -15 42 154 -110 -479 -329 -150 -83 -21 -6 16 1 23 -5 24 19 24 41 58 81 115 131 121 111 89 44 24 -27 -41 -71 -75 -87 -66 -85 -64 -88 -62 -80 -55 -77 -50 -83 -56 -72 -63 -76 -54 -63 -59 -70 -53 -68 -51 -68 -48 -71 -75 -107 -110 -128 -111 -101 -46 -43 -36 -43 -16 -38 -19 -45 -14 27 111 108 -289 -415 -212 -130 -46 -20 -11 -14 2 0 9 2 29 24 57 74 99 126 131 123 115 68 48 6 -23 -45 -71 -69 -53 -81 -48 -53 -47 -56 -39 -43 -47 -52 -24 -37 -41 -47 -32 -41 -42 -38 -45 -45 -32 -30 -58 -33 -28 -74 -37 -31 -55 -76 -65 -66 -86 -93 -49 -31 -30 -17 -14 -12 -12 -26 -6 -13 108 149 -41 -308 -395 -213 -50 -16 29 18 33 6 39 49 52 30 71 83 98 124 139 147 127 104 93 46 20 -7 -19 -50 -50 -41 -43 -33 -21 -19 -42 -30 -15 -47 -10 -33 -27 -4 -22 -31 -21 -31 -16 -52 
#avF[uV]
-24366 -21181 -19564 -16470 -14567 -10549 -9492 -6414 -4855 -1794 -161 -203 -162 -208 -143 -130 -117 -87 -79 -56 -33 19 56 100 145 163 175 184 112 67 36 -15 -64 -49 -62 -85 -30 -46 -18 -44 -49 -50 -60 -60 -57 -36 -61 -62 -52 3 45 63 136 180 131 127 23 -86 -129 -115 -101 -119 -117 -132 -146 -53 258 431 195 30 -39 -75 -131 -107 -117 -92 -86 -63 -49 -18 -6 30 58 94 153 187 199 226 180 207 149 89 47 0 -14 0 -10 -4 -11 8 -17 0 12 -22 -15 -15 -53 -29 -35 -36 -13 -1 59 57 96 159 172 134 86 -21 -80 -93 -101 -115 -93 -119 -100 -194 34 632 459 23 -3 -74 -99 -113 -114 -97 -91 -58 -70 -52 -16 -5 32 79 132 159 198 213 221 226 170 115 44 31 -15 5 -16 -6 -6 -2 -20 -12 -19 -2 -22 -14 -34 -7 -40 -36 -33 -14 -47 -31 -55 -33 10 47 40 80 138 147 115 86 -38 -78 -96 -65 -104 -75 -96 -68 -165 27 610 464 74 42 -53 -62 -75 -71 -63 -38 -38 -29 -17 10 15 43 52 114 147 174 199 220 204 170 123 70 19 8 8 15 -21 -7 -6 -18 -30 -13 -43 -34 -47 -43 -47 -52 -44 -54 -53 -50 -59 -20 -55 -8 36 53 69 147 144 107 70 -4 -80 -103 -109 -124 -97 -130 -125 -230 0 545 223 113 51 -117 -111 -165 -129 -138 -128 -105 -104 -70 -56 -25 -20 10 37 102 148 178 182 202 166 117 50 18 -17 -24 -36 -28 -27 -15 -50 -34 -23 -24 -56 -58 -59 -45 -53 -68 -65 2 -18 30 68 164 131 115 90 -30 -116 -128 -148 -148 -129 -160 -118 -236 26 577 211 87 31 -114 -113 -136 -134 -112 -101 -76 -69 -21 -25 6 32 71 105 151 190 238 242 252 176 90 101 50 36 11 17 6 16 27 22 12 6 5 17 0 -8 -7 -8 -27 44 55 67 133 195 205 150 134 12 -42 -81 -88 -109 -67 -93 -69 -150 73 522 378 101 -204 -39 -42 -110 -63 -107 -70 -71 -33 -37 2 13 56 78 131 149 222 215 253 191 210 155 88 54 17 0 6 7 24 0 0 -1 0 -11 -18 -16 -17 -27 -32 -50 -23 -44 -28 6 72 56 111 179 166 120 100 -19 -57 -70 -85 -96 -68 -121 -74 -160 26 653 521 78 28 -52 -92 -89 -83 -78 -63 -57 -35 -20 1 18 52 94 130 157 191 233 248 239 208 145 108 78 36 8 33 21 22 17 13 1 19 3 -17 4 3 -15 5 -33 4 -30 -8 -1 -17 -26 7 -27 74 66 83 155 185 149 156 71 -12 -57 -49 -62 -77 -54 -75 -87 -44 245 440 301 103 0 -29 -83 -65 -84 -53 -47 -38 -14 -7 -9 47 45 93 124 154 211 238 235 225 191 144 88 50 30 10 26 19 -7 35 1 12 1 11 -13 -9 -19 -16 -22 -35 -34 -26 -39 -5 26 60 59 150 161 118 134 27 -60 -64 -105 -92 -95 -77 -129 -122 -20 312 389 291 102 -51 -83 -134 -124 -131 -113 -83 -77 -39 -35 -1 11 43 88 126 145 211 220 246 216 157 115 59 30 8 -24 4 4 3 32 44 -1 22 20 10 23 16 8 9 -8 33 95 107 116 226 238 191 189 71 -18 -30 -53 -44 -67 -36 -59 -49 13 347 519 295 92 41 -30 -37 -49 -39 -40 -7 -7 11 32 73 80 115 127 209 226 287 298 315 262 220 159 139 75 86 50 72 66 80 62 71 55 62 43 67 40 54 30 33 31 47 29 99 127 139 177 238 229 190 172 79 -6 -30 -35 -14 -32 -32 -43 -89 94 652 536 155 64 7 -53 -63 -56 -63 -45 -25 -39 0 11 39 42 83 119 168 201 234 230 244 218 163 101 64 0 24 18 1 0 9 2 15 -4 6 -21 -17 -16 -17 -30 -12 -30 -27 -29 -39 -36 -56 -29 -10 -47 15 28 47 68 147 153 115 82 -4 -71 -71 -104 -75 -95 -80 -98 -143 -23 452 440 155 63 -34 -96 -98 -111 -109 -97 -75 -65 -38 -28 -11 2 48 51 90 118 143 151 186 168 136 69 42 -7 -19 -18 -23 -35 -16 -27 -35 -36 -27 -46 -50 -55 -37 -68 -73 -93 -62 -86 -65 -75 -66 -91 -82 -100 -45 -6 15 35 107 90 35 13 -60 -148 -135 -160 -181 -145 -197 -156 -262 -22 538 207 8 -42 -168 -190 -214 -200 -202 -190 -166 -155 -137 -138 -90 -91 -55 -36 15 55 98 96 131 82 52 -48 -54 -90 -106 -121 -123 -109 -117 -125 -100 -137 -110 -129 -137 -139 -148 -148 -139 -179 -151 -112 -60 -60 -20 52 42 5 -21 -141 -201 -227 -227 -252 -205 -256 -217 -313 -65 474 127 -21 -54 -219 -197 -259 -240 -232 -201 -201 -174 -150 -147 -103 -85 -63 -11 27 88 95 133 135 87 34 1 -40 -72 -96 -112 -98 -81 -101 -79 -79 -90 -84 -82 -94 -96 -110 -100 -103 -115 -87 -36 -19 46 95 76 65 -3 -104 -163 -182 -192 -206 -182 -214 -172 -259 -26 532 265 -60 -71 -154 -159 -204 -171 -170 -164 -143 -153 -113 -80 -85 -30 -17 47 70 116 128 161 167 120 69 14 -25 -65 -84 -91 -55 -76 -73 -58 -85 -46 -80 -80 -98 -98 -98 -81 -95 -94 -82 -15 -2 -5 62 115 112 95 30 -76 -115 -132 -149 -137 -124 -175 -131 -215 -22 585 446 14 -53 -100 -150 -159 -130 -143 -125 -109 -89 -84 -82 -36 -16 4 75 113 145 172 173 182 166 98 29 10 -24 -27 -26 -30 -75 -41 -57 -29 -52 -31 -55 -77 -67 -71 -66 -40 -68 -54 -63 -63 -61 -33 44 31 56 135 109 101 64 -15 -106 -128 -103 -110 -106 -120 -100 -188 -29 477 303 57 19 -99 -111 -142 -135 -137 -125 -132 -110 -65 -59 -38 -12 6 19 89 109 141 160 153 165 110 44 11 -19 -23 -23 -40 -34 -41 -44 -43 -38 -35 -49 -60 -65 -90 -55 -45 -56 -50 -9 62 12 74 165 157 121 40 -18 -80 -101 -101 -137 -72 -153 -147 -212 26 519 159 77 58 -120 -89 -174 -160 -123 -104 -96 -72 -39 -33 -27 -7 5 81 131 152 197 208 213 175 125 69 21 -31 -9 -12 -25 -5 4 -10 -33 -10 -10 -4 -21 -32 -23 -36 4 57 71 110 183 211 168 131 57 -48 -98 -79 -73 -77 -81 -92 -111 2 312 266 231 104 -39 -40 -87 -88 -73 -62 -49 -24 -4 12 36 67 61 125 178 189 249 284 294 283 236 161 111 105 80 70 68 43 87 83 78 104 68 30 59 74 56 182 86 128 142 145 214 250 216 203 93 3 -71 -55 -16 -34 -38 -47 -74 32 392 476 236 111 5 -45 -69 -98 -50 -16 -48 -8 3 9 49 53 65 133 167 207 233 272 237 244 186 129 92 54 27 31 25 -5 16 41 3 -1 24 2 -5 2 9 -74 -20 4 0 30 69 67 104 192 198 176 155 53 -25 -54 -103 -56 -55 -68 -60 -82 -40 210 440 307 47 26 -44 -93 -92 -102 -65 -56 -50 -47 -25 20 9 16 69 124 124 156 198 209 202 176 130 62 22 17 -12 -4 3 6 -2 -26 -6 -3 -3 -9 -47 -34 -21 -12 -33 -26 -38 -76 1 45 54 118 164 111 101 42 -11 -91 -98 -96 -119 -77 -167 -120 -233 20 588 212 48 25 -129 -130 -152 -118 -128 -109 -92 -125 -62 -37 -38 -5 10 12 104 147 172 204 172 113 111 70 -3 -17 -32 -37 -23 -46 -29 -42 -27 -31 -24 -43 -26 -31 -41 -34 -33 -28 -11 23 60 87 161 180 170 152 88 -7 -68 -91 -59 -81 -52 -112 -52 -136 89 636 340 49 51 -52 -68 -98 -73 -73 -61 -31 -7 14 26 49 94 98 146 173 198 223 276 266 213 146 131 81 66 23 64 34 47 52 44 11 14 43 36 0 35 19 9 -21 6 29 95 74 103 166 212 179 168 84 -14 -111 -95 -84 -91 -85 -111 -110 -148 147 680 380 5 -17 -85 -148 -117 -118 -135 -116 -86 -84 -52 -57 -19 -19 24 70 112 131 181 170 179 130 96 27 -4 -43 -42 -57 -46 -56 -44 -58 -57 -86 -60 -67 -64 -58 -79 -93 -65 -91 -85 -117 -88 -101 -117 -89 -94 -125 -49 -30 -18 18 90 64 44 5 -90 -160 -146 -161 -144 -143 -164 -157 -223 -53 509 366 0 -27 -106 -157 -165 -162 -160 -154 -149 -145 -113 -116 -89 -70 -40 -11 38 58 92 91 129 103 69 6 -26 -70 -99 -98 -97 -106 -96 -121 -87 -111 -99 -121 -109 -121 -115 -131 -123 -137 -138 -143 -142 -152 -140 -159 -134 -92 -56 -50 35 40 25 14 -67 -124 -161 -194 -168 -195 -174 -223 -197 -198 94 421 215 4 -90 -162 -200 -195 -182 -185 -159 -158 -115 -139 -106 -87 -60 -23 6 45 110 123 136 133 115 62 26 -30 -35 -66 -54 -76 -43 -71 -47 -65 -46 -71 -64 -78 -61 -97 -62 -77 -50 -34 26 10 98 148 157 110 85 -32 -94 -122 -88 -124 -82 -125 -101 -192 56 541 270 100 98 -69 -54 -115 -72 -88 -64 -43 -13 -13 18 34 65 81 119 153 220 264 262 274 260 200 165 104 94 58 59 48 79 69 93 77 80 66 76 50 56 38 45 33 56 18 35 39 94 129 153 209 245 225 199 147 44 -20 -22 -41 -41 -20 -29 -43 -111 93 705 587 144 77 16 -48 -56 -61 -45 -44 -24 -16 9 15 49 49 93 136 169 210 263 239 278 252 214 144 108 52 58 44 62 41 52 29 39 26 57 12 28 16 21 -1 14 -21 10 -7 1 -17 -12 -9 -2 -3 45 70 93 105 176 166 160 115 66 -37 -27 -40 -41 -56 -35 -53 -59 8 400 531 277 105 56 -30 -62 -55 -51 -43 -7 -22 14 3 41 39 76 101 152 172 202 223 253 233 222 167 126 53 53 29 49 36 36 25 42 33 31 5 2 -3 12 -3 -7 -20 -7 -24 -37 -24 -6 -33 -26 -16 -7 -3 -12 -12 2 14 77 62 81 142 169 127 70 1 -37 -81 -66 -81 -60 -129 -53 -168 62 571 276 176 98 -89 -60 -149 -86 -111 -98 -84 -67 -79 -28 -26 -5 30 61 86 137 187 208 242 245 201 142 91 55 19 10 16 5 7 5 4 24 -6 8 1 -5 -18 -12 -20 -7 -28 -23 -30 45 
