ADC Sampling rate (Hz):
100
Fragment duration (sec):
21
Number of samples exported by each lead:
2099

#I[uV]
-8748 -7722 -6965 -5987 -5195 -4524 -3407 -2787 -1727 -708 60 50 36 47 44 79 256 444 388 88 32 49 27 45 39 35 56 52 67 72 86 98 109 112 169 177 199 262 318 343 336 331 278 183 135 101 85 68 45 73 65 67 72 71 71 75 71 73 64 70 73 88 66 71 60 85 72 65 64 84 64 77 89 101 110 108 134 103 94 109 106 108 114 103 119 149 112 144 163 165 167 171 195 202 152 184 153 138 148 131 163 158 398 629 372 283 187 150 141 152 158 158 151 153 145 177 179 202 206 227 259 256 283 329 387 428 458 444 388 281 230 176 153 127 97 107 103 120 102 112 135 100 101 110 97 104 103 108 93 119 101 101 118 98 128 109 86 121 104 99 112 111 124 109 94 98 119 98 109 119 98 122 139 109 129 123 156 152 151 108 86 118 83 103 69 120 79 235 416 414 271 81 113 110 70 114 93 126 93 125 118 135 141 156 189 197 237 250 314 349 353 400 382 350 240 125 106 67 37 46 27 41 33 40 8 16 30 41 42 10 44 31 29 47 48 48 44 55 48 45 82 63 50 73 67 68 61 69 61 78 66 76 72 97 89 109 131 136 131 68 49 71 49 89 52 84 36 186 392 376 317 54 65 95 27 70 67 79 70 81 70 88 63 112 105 119 143 188 257 273 301 339 308 316 216 122 72 61 35 51 11 38 30 36 43 40 18 35 46 33 39 69 43 60 40 34 27 47 28 60 6 50 46 33 24 64 40 52 35 66 44 61 64 66 20 54 23 33 80 66 112 85 28 23 -10 19 -24 13 -10 -5 7 232 352 376 285 2 -64 -10 -50 -24 -11 2 -17 12 11 26 21 42 44 77 82 147 179 232 274 273 297 207 146 65 -17 -14 -42 -50 -42 -51 -65 -34 -44 -58 -49 -77 -78 -97 -86 -127 -122 -137 -145 -157 -149 -140 -144 -155 -134 -149 -147 -151 -143 -138 -135 -133 -127 -128 -127 -122 -125 -124 -127 -121 -123 -118 -129 -99 -121 -99 -26 -63 -30 -21 -102 -69 -80 -89 -59 -98 -76 -80 12 302 409 156 -20 -84 -125 -91 -97 -57 -47 -22 -49 -44 -3 12 12 43 56 80 109 156 220 273 295 290 283 204 129 87 34 30 40 40 25 39 61 47 31 60 59 44 49 42 56 44 46 53 40 32 55 52 29 61 59 58 41 52 46 41 57 54 54 48 70 71 41 51 64 72 66 58 67 68 38 77 67 63 92 100 107 107 39 49 60 38 75 20 35 44 197 400 391 172 47 45 22 26 25 41 34 35 35 27 50 52 58 59 67 97 138 193 218 270 272 295 227 133 43 20 -35 -36 -67 -41 -79 -62 -58 -48 -62 -32 -54 -56 -60 -32 -46 -53 -45 -34 -52 -35 -21 -18 -24 -33 -25 -42 -24 -13 -26 -24 -51 -12 -27 -29 14 -24 -22 -19 -54 -22 -17 -19 -10 7 28 14 9 -42 -57 -47 -50 -50 -110 -46 -84 162 339 269 -40 -69 -20 -81 -67 -80 -70 -58 -48 -34 -31 -10 -12 34 31 57 84 141 169 230 258 282 296 225 136 69 51 -2 -22 -13 -12 -26 -38 -25 -51 -32 -33 -38 -27 -43 -43 -58 -71 -79 -82 -59 -69 -58 -67 -76 -98 -87 -120 -94 -103 -110 -110 -106 -110 -100 -109 -96 -105 -107 -112 -98 -104 -106 -89 -66 -54 -47 -33 -25 -68 -80 -87 -78 -122 -78 -120 0 227 265 246 -70 -119 -81 -119 -109 -133 -114 -110 -79 -94 -87 -65 -60 -53 -28 -22 25 58 96 161 187 221 178 140 56 -19 -46 -82 -90 -99 -101 -100 -98 -96 -96 -90 -86 -86 -71 -70 -58 -61 -74 -62 -49 -51 -46 -32 -36 -19 -28 -31 -32 -41 -33 -25 -40 -42 -40 -40 -52 -49 -34 -54 -29 -38 -33 -12 -7 22 1 -33 -62 -53 -56 -93 -47 -58 -23 174 345 309 115 3 -14 -4 -15 -133 -10 -26 -45 -15 -21 -18 19 17 15 46 90 108 144 201 249 262 278 221 129 54 -12 -28 -35 -67 -80 -80 -103 -98 -97 -91 -58 -119 -119 -105 -129 -108 -123 -126 -145 -162 -143 -164 -170 -137 -165 -156 -157 -166 -165 -168 -168 -151 -161 -180 -150 -160 -160 -146 -150 -154 -116 -116 -83 -116 -167 -144 -168 -149 -163 -139 -150 -48 246 276 123 -75 -137 -109 -124 -96 -135 -109 -88 -91 -85 -84 -51 -34 -28 5 30 55 114 151 207 240 261 240 135 43 5 -41 -84 -76 -77 -85 -86 -84 -71 -73 -65 -71 -82 -69 -54 -57 -56 -58 -53 -66 -48 -40 -48 -21 -26 -49 -37 -48 -54 -58 -41 -8 -12 -23 -1 -31 -5 0 28 -15 -71 -51 -57 -53 -85 -95 -55 -10 200 295 140 -87 -59 -11 -82 -46 -69 -34 -60 -37 -39 -39 -22 1 -3 -2 71 67 113 170 204 263 266 224 150 82 -1 -55 -104 -98 -108 -120 -112 -133 -137 -149 -141 -149 -151 -136 -118 -90 -121 -121 -115 -119 -104 -121 -107 -132 -136 -116 -108 -99 -99 -80 -81 -84 -59 -58 -13 -22 -25 -76 -79 -77 -92 -84 -51 -91 -24 218 300 192 -65 -45 -15 -78 -32 -61 -65 -39 -43 -36 -27 -10 -3 31 41 83 112 160 193 246 264 272 265 177 97 28 -24 -26 -65 -48 -46 -38 -33 -33 -29 -30 -43 -31 -35 -21 -35 -30 -29 -31 -28 -46 -39 -19 -41 -44 -42 -18 -4 -14 -17 -4 5 -7 29 34 24 25 -27 -32 -35 -53 -35 -71 -48 -28 141 336 298 73 43 -25 -43 -24 -34 -28 -33 -14 -18 -4 5 17 44 44 62 91 130 157 214 244 280 262 199 129 55 7 -26 -27 -54 -28 -46 -48 -45 -36 -49 -58 -51 -50 -47 -53 -51 -46 -32 -56 -39 -61 -40 -26 -46 -46 -32 -33 -34 -23 -45 -17 2 6 36 20 45 10 -30 -11 -33 -9 -16 -29 35 -4 149 362 342 232 50 5 10 4 10 36 19 26 41 60 60 70 71 83 112 129 152 190 234 280 288 308 241 154 80 37 3 -14 -26 -18 -19 -13 -24 -10 -9 -35 -25 -27 -29 -3 -9 2 18 6 5 22 6 23 13 7 20 23 13 27 30 30 9 35 16 34 37 58 63 70 46 50 10 33 15 4 32 39 85 330 389 353 176 19 -7 18 22 19 30 40 39 77 60 75 83 92 110 147 168 227 238 322 348 358 330 257 167 127 72 60 35 50 34 48 48 57 50 36 38 53 39 54 69 45 36 56 37 60 40 38 32 43 44 50 30 31 39 34 57 32 33 28 33 54 40 73 114 88 79 62 32 58 49 75 37 77 43 207 360 384 349 55 21 97 44 64 62 75 65 77 75 99 96 114 128 134 162 213 246 298 342 358 366 283 216 135 55 17 0 -17 -10 -13 -8 -20 -43 -23 -4 -21 0 -10 -8 5 -23 -8 -8 -18 -14 -13 -9 6 0 -11 -6 -5 -9 8 -3 -7 -20 -16 -14 9 1 6 -29 -1 10 32 104 71 54 7 -7 -1 -15 9 -24 -6 -28 166 333 292 259 17 -38 -13 -63 -37 -17 -35 -13 -22 -38 -7 -16 27 19 39 67 111 154 206 201 272 245 215 125 72 5 -2 -22 -35 -3 -20 -35 -31 -35 -29 -25 -21 -30 -22 -26 -10 -29 -35 -31 -27 -32 -46 -51 -45 -42 -40 -18 -47 -43 -44 -56 -61 -62 -37 -53 -44 -52 -39 -53 -65 -37 -50 -29 -37 -30 -9 6 21 33 -1 -29 -26 -54 -34 -64 -31 -68 33 201 383 314 16 -65 -38 -67 -34 -71 -42 -39 -22 -18 -13 -23 -15 -7 30 42 70 75 144 199 224 240 241 191 70 14 -20 -49 -70 -80 -78 -83 -69 -70 -43 -59 -43 -56 -57 -55 -45 -44 -33 -42 -27 -29 -42 -31 -33 -33 -40 -44 1 -7 -13 -8 -12 -8 -11 0 5 -2 0 -1 6 6 3 5 9 29 30 62 60 59 71 8 -1 -1 -5 -17 4 -25 17 204 396 282 86 34 31 1 30 -10 31 12 49 59 62 68 66 82 87 114 156 183 265 295 316 344 348 295 194 117 66 46 17 7 -7 -7 -9 -22 -6 -27 -9 -10 2 -4 1 6 -6 -1 -3 12 0 -8 13 10 -3 4 6 -6 13 2 -14 -4 -10 -3 0 2 7 8 40 23 19 63 62 83 69 67 32 39 12 20 22 48 24 102 317 363 306 51 17 82 24 50 52 70 41 63 54 53 83 92 100 105 149 171 194 245 299 314 322 329 248 151 93 62 30 26 24 21 12 4 4 -4 11 10 2 0 -5 13 18 -3 12 0 3 29 6 -14 -4 3 20 7 -5 -5 -12 7 -9 2 5 0 2 -5 -4 -11 6 14 36 29 26 33 67 69 25 18 9 12 30 0 21 0 147 378 338 170 37 18 -2 -9 0 -2 -4 6 14 17 28 45 57 49 98 104 138 173 209 257 283 296 250 162 69 47 -15 -28 -34 -35 -55 -48 -11 -53 -38 -39 -49 -39 -42 -33 -47 -36 -50 -22 -22 -18 -40 -15 -11 -25 -22 -27 -19 -23 -13 -13 -6 -24 -11 -21 -32 -8 -44 -27 -14 -21 15 -2 11 13 55 57 36 -12 -38 -16 -31 -56 -54 -14 -31 108 342 299 191 -3 -25 -23 -33 -49 -45 12 -30 -41 -14 -8 7 14 34 21 94 109 152 235 237 253 293 252 154 83 12 -32 -19 -42 -82 -63 -64 -34 -50 -61 -45 -59 -56 -47 -45 -67 -52 -64 -41 -53 -71 -30 -52 -75 -69 -66 -92 -84 -65 -69 -96 -90 -82 -70 -91 -93 -46 -61 -61 -92 -51 -29 -47 -42 -14 11 -9 -58 -60 -63 -81 -35 -98 -29 -46 116 301 251 159 -31 -4 -7 -57 -12 -65 -10 -29 1 0 4 27 40 31 64 84 127 172 217 273 314 306 263 182 98 33 11 -22 -45 -53 -35 -57 -6 -45 -28 -31 -42 -28 -34 -15 -2 -22 -25 -24 -14 -16 -21 -27 -13 -16 3 -2 -22 -24 7 0 -14 -6 -20 -7 17 -9 2 6 8 40 46 53 60 11 -16 -24 -13 -15 -38 -13 -22 43 296 206 308 109 23 25 8 38 15 4 31 48 51 67 50 86 77 112 128 159 191 255 301 311 334 329 250 149 116 56 33 15 3 0 17 0 5 -6 -13 -6 0 0 7 7 9 7 28 14 33 15 41 21 43 30 36 26 35 55 51 62 58 61 73 66 80 55 77 85 77 112 109 136 117 117 83 56 82 48 62 63 63 123 323 339 413 189 75 64 48 51 63 57 93 93 91 84 105 106 140 133 173 192 235 261 318 350 377 315 314 229 145 58 71 47 
#II[uV]
21928 18969 17622 14738 13356 10306 8972 5799 4437 1440 -6 8 -9 10 -38 -44 -21 942 1320 412 68 53 -13 -49 -4 -29 4 15 10 46 44 69 78 97 132 163 205 282 331 377 398 419 343 206 113 46 22 -11 9 -14 -37 -4 -26 5 13 0 -20 0 -14 -8 -11 -19 -17 -16 -52 -17 -13 -36 -37 -16 -47 -35 -14 -8 -9 -3 -29 0 -4 0 -19 -66 -19 -5 -3 8 -8 25 47 87 145 147 132 81 -2 -61 -47 -42 -72 -66 -70 -99 -78 723 1138 512 39 37 -33 -122 -33 -101 -39 -52 -38 -33 15 13 27 62 113 115 170 231 311 347 402 366 380 196 102 55 22 -67 -54 -48 -61 -91 -35 -44 -50 -50 -24 -39 -16 -48 -41 -42 -30 -20 -27 -52 -19 -55 -31 -20 -20 -9 -11 -26 -21 -9 -5 -2 11 12 5 -1 10 9 0 40 67 98 121 190 247 201 135 84 61 24 56 -21 36 -30 -49 -44 560 1383 665 137 137 12 74 -9 45 3 36 49 34 59 100 96 137 155 219 242 302 382 403 441 467 425 331 189 148 68 57 37 24 -6 10 23 17 -9 24 15 53 -2 19 26 31 31 41 26 36 18 47 43 73 34 49 59 67 40 48 27 77 54 80 41 103 118 159 203 263 243 203 98 62 2 48 -22 49 -71 21 -59 520 1379 619 125 168 -6 48 -46 13 -10 8 3 13 20 32 59 66 79 141 166 254 292 361 400 403 379 286 129 85 6 -8 -32 -56 -42 -37 -63 -48 -61 -50 -55 -34 -53 -17 -33 -25 -47 -20 -47 -30 -68 -51 -46 -58 -83 -40 -58 -39 -77 -47 -78 -44 -91 -68 -69 -36 -79 -31 -64 -7 -6 65 92 122 81 4 -90 -88 -142 -130 -189 -89 -221 -83 -120 453 1269 412 -94 -36 -213 -157 -243 -223 -204 -168 -189 -158 -158 -129 -129 -76 -68 -19 39 96 171 223 261 246 196 66 -75 -157 -188 -191 -229 -221 -222 -236 -229 -231 -208 -239 -214 -236 -228 -202 -256 -223 -243 -255 -223 -249 -234 -234 -245 -253 -249 -259 -233 -246 -258 -252 -275 -254 -266 -257 -257 -226 -252 -237 -241 -240 -248 -220 -195 -158 -124 -31 -31 -53 -132 -192 -221 -247 -281 -252 -275 -175 -298 -59 370 537 490 148 -143 -179 -258 -243 -245 -206 -204 -206 -201 -139 -138 -138 -91 -42 -18 28 95 191 236 283 309 256 164 47 -31 -94 -92 -139 -122 -145 -114 -125 -117 -136 -117 -119 -129 -107 -111 -112 -128 -125 -102 -123 -98 -117 -155 -108 -114 -103 -116 -94 -122 -116 -126 -103 -128 -118 -135 -107 -119 -114 -136 -99 -117 -100 -107 -112 -112 -109 -60 -64 -14 70 67 73 -2 -88 -111 -163 -179 -112 -164 -80 -211 -44 579 623 389 66 -111 -155 -190 -170 -196 -207 -198 -158 -196 -169 -138 -105 -108 -82 -50 27 39 172 173 268 253 247 102 -14 -102 -130 -208 -191 -217 -194 -221 -218 -205 -183 -194 -164 -219 -179 -201 -168 -181 -168 -181 -169 -163 -140 -178 -152 -179 -182 -182 -165 -169 -122 -162 -169 -173 -154 -165 -143 -148 -151 -154 -144 -142 -66 -56 5 48 46 27 -47 -122 -129 -156 -147 -202 -142 -204 -166 -75 784 1136 204 -48 -45 -164 -133 -186 -158 -175 -140 -154 -105 -109 -90 -88 -31 -40 36 63 153 215 304 327 345 272 145 17 -20 -104 -126 -139 -128 -152 -129 -175 -167 -140 -141 -152 -146 -137 -131 -162 -149 -166 -175 -142 -147 -165 -151 -185 -179 -195 -194 -206 -203 -213 -194 -208 -216 -229 -221 -225 -212 -225 -206 -216 -197 -131 -105 -53 12 -23 -27 -57 -142 -187 -159 -238 -168 -253 -196 -270 70 1151 885 82 -139 -193 -189 -220 -166 -178 -145 -143 -144 -135 -127 -92 -79 -56 -4 42 103 139 240 293 364 347 232 124 6 -41 -98 -126 -142 -144 -173 -169 -122 -142 -127 -128 -111 -122 -119 -110 -133 -97 -107 -117 -96 -102 -83 -98 -103 -84 -85 -86 -88 -97 -82 -97 -68 -87 -101 -52 -60 -59 -71 -21 25 33 117 103 91 27 -30 -56 -71 -111 -97 -148 -105 -144 -124 697 1250 483 -46 0 -95 -75 -39 -105 -95 -82 -76 -62 -23 -21 18 6 53 85 105 206 287 323 380 408 347 257 102 21 -99 -99 -78 -107 -98 -99 -115 -117 -116 -142 -129 -120 -168 -121 -105 -131 -115 -134 -124 -138 -126 -138 -151 -156 -171 -119 -108 -113 -137 -137 -110 -137 -108 -119 -146 -84 -48 -35 31 79 49 49 -44 -110 -142 -146 -161 -156 -166 -165 -213 199 1219 891 37 -25 -114 -139 -124 -124 -216 -111 -97 -118 -65 -74 -57 -44 -27 5 65 109 185 274 281 283 314 255 121 16 -109 -109 -142 -140 -120 -144 -146 -148 -142 -131 -138 -137 -126 -141 -129 -119 -130 -121 -151 -195 -127 -112 -168 -134 -116 -132 -119 -170 -98 -115 -188 -137 -32 -32 -1 58 81 25 -18 -118 -171 -160 -157 -160 -198 -210 -243 -40 940 950 159 -72 -138 -130 -173 -197 -232 -118 -126 -142 -108 -119 -82 -54 -65 -60 23 87 126 193 260 269 292 221 51 27 -60 -99 -110 -185 -211 -174 -177 -177 -167 -181 -179 -164 -143 -153 -219 -179 -133 -167 -143 -148 -143 -150 -140 -184 -184 -161 -116 -145 -123 -76 -45 12 93 79 3 -13 -65 -114 -115 -134 -121 -167 -175 -225 -9 869 1085 183 -61 -6 -141 -80 -142 -88 -151 -91 -84 -77 -49 -14 -10 44 70 129 114 213 256 326 361 349 289 187 67 -3 -102 -70 -90 -62 -80 -72 -87 -73 -70 -59 -73 -66 -64 -54 -79 -57 -51 -65 -71 -65 -96 -47 -88 -75 -53 -76 -76 -58 -37 34 20 133 113 83 31 -33 -113 -114 -138 -115 -152 -121 -187 -89 623 978 448 112 -34 -37 -140 -100 -151 -80 -120 -100 -75 -53 -51 -9 -23 34 60 130 132 242 288 340 347 299 198 79 -43 -45 -91 -90 -106 -97 -122 -98 -96 -83 -98 -90 -102 -96 -100 -61 -85 -95 -95 -80 -103 -88 -93 -74 -105 -100 -104 -90 -79 -90 -55 8 10 123 120 80 16 -36 -100 -116 -143 -121 -172 -82 -216 -44 420 780 679 196 -90 -11 -160 -93 -193 -91 -144 -104 -75 -71 -45 -41 3 40 57 106 143 224 284 344 324 295 175 66 -42 -81 -108 -136 -138 -131 -142 -133 -133 -128 -123 -102 -142 -130 -89 -105 -140 -128 -128 -103 -101 -84 -123 -103 -125 -100 -125 -113 -113 -99 -125 -113 -98 -26 -13 70 82 102 48 6 -72 -101 -133 -91 -136 -52 -154 -39 117 545 1007 325 -55 -8 -131 -89 -157 -120 -146 -90 -78 -48 -67 -13 -47 20 9 83 117 190 238 312 303 297 240 131 2 -27 -111 -89 -124 -112 -139 -111 -119 -116 -102 -104 -110 -120 -109 -86 -125 -98 -75 -115 -113 -109 -93 -116 -105 -91 -113 -101 -129 -112 -107 -87 -113 -93 -136 -44 -42 -9 58 85 62 19 -51 -100 -142 -100 -175 -78 -183 -105 -162 454 1267 467 -17 43 -114 -85 -125 -91 -160 -89 -114 -75 -78 -40 -35 -3 -6 33 88 158 194 269 314 322 269 167 83 -8 -89 -83 -120 -134 -148 -129 -130 -143 -126 -108 -144 -130 -112 -112 -95 -112 -148 -100 -98 -119 -127 -118 -95 -113 -131 -97 -113 -119 -125 -128 -89 -113 -110 -96 -116 -74 -88 -60 -4 52 108 120 90 16 -58 -46 -114 -83 -115 -63 -132 -30 -116 565 1351 459 -6 61 -94 -90 -136 -70 -125 -76 -87 -88 -71 -30 -16 24 25 76 100 209 250 304 355 370 312 184 81 27 -57 -48 -107 -50 -98 -87 -99 -77 -85 -56 -78 -66 -79 -49 -62 -50 -69 -62 -73 -53 -102 -75 -86 -51 -64 -67 -73 -48 -84 -59 -83 -70 -74 -63 -76 -60 -83 -63 -87 -50 -79 -38 -17 49 76 154 124 52 8 -19 -71 -61 -123 -26 -129 -16 -142 186 1186 769 249 45 -67 -12 -121 -42 -68 -40 -34 -2 -12 0 1 39 40 89 144 184 242 312 369 408 376 308 183 85 22 -32 -83 -98 -84 -76 -78 -75 -112 -54 -64 -72 -55 -56 -47 -67 -83 -39 -56 -37 -62 -31 -52 -37 -58 -68 -48 -8 -38 -15 -28 -27 -31 -6 12 0 -23 -8 11 14 -3 10 33 92 95 170 193 149 97 13 4 -37 -75 -4 -62 -12 -129 18 865 1018 351 51 -3 -54 -82 -49 -38 -57 -18 -24 -33 -26 23 38 32 117 125 179 243 305 371 394 453 377 255 160 74 23 -6 -5 -42 -40 -28 -62 -56 -41 -45 -17 -17 10 -39 -11 -11 -43 -6 21 -16 7 -27 -28 -21 -26 -1 -12 -6 8 -38 -4 -17 -1 -10 -9 5 6 1 83 77 173 212 129 160 95 12 18 -5 13 -36 3 -31 -123 322 1294 997 151 85 19 23 10 -24 32 36 5 63 47 64 103 99 140 139 210 244 295 406 422 453 465 351 218 138 48 13 10 -1 -4 -24 -43 -5 -35 -54 -16 -15 -15 -9 -26 -27 -8 -7 -14 -23 -86 -9 -15 -14 -16 -76 -5 -28 -20 -27 -96 -35 -53 -26 -11 -48 -34 -44 -35 -77 -45 62 20 132 168 131 70 -1 -46 -82 -41 -102 -113 -144 -138 -165 602 1347 631 13 -76 -106 -100 -116 -105 -72 -74 -61 -67 -65 -101 -20 -16 31 90 123 165 235 324 363 388 343 234 97 -56 -66 -88 -149 -92 -126 -234 -127 -105 -115 -122 -132 -101 -114 -130 -131 -137 -131 -114 -109 -112 -135 -95 -129 -123 -103 -114 -95 -119 -126 -95 -98 -115 -113 -105 -108 -86 -121 -98 -84 -99 -39 -15 -13 111 137 23 36 1 -65 -74 -153 -157 -112 -172 -160 -172 448 1355 591 -10 -16 -154 -121 -127 -113 -174 -117 -94 -118 -67 -74 -22 -20 24 29 28 120 221 279 371 375 366 229 105 -3 -64 -76 -106 -118 -151 -132 -117 -179 -117 -117 -104 -96 -117 -105 -107 -85 -138 -122 -102 -114 -93 -113 -156 -105 -103 -121 -125 -116 -134 -99 -113 -127 -121 -103 -139 -142 -124 -83 -99 -68 -67 -2 69 89 53 24 -39 -84 -122 -93 -195 -123 -156 -184 -222 414 1219 565 -7 -27 -145 -77 -169 -89 -136 -113 -114 -104 -77 -45 -45 -15 -14 48 54 155 200 250 339 357 260 238 101 21 -57 -116 -155 -121 -148 -140 -173 -120 -132 -128 -201 -138 -130 -120 -115 -117 -121 -123 -131 -135 -162 -109 -137 -154 -127 -115 -148 -121 -134 -129 -129 -131 -157 -117 -117 -115 -103 -47 -48 41 49 46 26 -48 -102 -117 -149 -112 -163 -139 -182 -159 151 711 849 151 -97 -87 -177 -121 -202 -163 -196 -133 -132 -101 -126 -84 -87 -52 -31 35 58 149 194 243 271 276 180 53 -59 -122 -194 -198 -234 -237 -247 -223 -232 -226 -243 -225 -245 -215 -236 -217 -236 -216 -208 -211 -221 -221 -212 -217 -232 -208 -209 -207 -239 -200 -215 -177 -214 -181 -191 -179 -168 -165 -169 -94 -100 -32 12 9 -29 -59 -141 -161 -211 -175 -188 -139 -233 -161 -14 502 1103 274 -88 -40 -191 -120 -161 -169 -164 -117 -131 -99 -87 -76 -52 -13 9 78 115 196 242 315 325 322 279 147 22 -44 -118 -94 
#III[uV]
30677 26691 24587 20726 18551 14831 12380 8586 6164 2148 -66 -42 -45 -37 -82 -123 -277 497 931 324 36 3 -41 -95 -43 -64 -52 -37 -56 -26 -41 -29 -30 -15 -37 -14 5 20 12 33 61 87 65 23 -22 -54 -63 -80 -36 -88 -103 -71 -98 -66 -58 -74 -91 -74 -78 -79 -85 -107 -83 -87 -113 -103 -85 -101 -102 -100 -112 -112 -104 -109 -120 -111 -164 -103 -99 -109 -126 -174 -133 -109 -122 -141 -121 -119 -116 -77 -21 -23 -63 -121 -155 -245 -201 -180 -221 -198 -233 -258 -476 94 766 229 -148 -112 -175 -274 -191 -259 -191 -206 -183 -211 -164 -189 -178 -165 -145 -141 -112 -97 -75 -80 -56 -77 -8 -85 -128 -121 -131 -195 -152 -156 -165 -211 -138 -157 -185 -151 -126 -150 -113 -153 -144 -150 -123 -139 -129 -153 -137 -154 -160 -129 -106 -131 -115 -125 -133 -121 -130 -112 -82 -85 -114 -99 -98 -109 -99 -82 -71 -10 -7 66 90 49 -15 -24 -25 -94 -27 -124 -32 -151 -129 -280 144 968 394 55 24 -98 4 -123 -47 -123 -56 -75 -83 -75 -40 -59 -51 -42 -18 -7 -11 33 50 41 84 74 90 64 42 0 19 -9 -2 -48 -22 -17 8 -26 -6 -25 10 -12 -24 -5 1 -15 -7 -21 -8 -37 -1 -2 -9 -29 -1 -13 0 -28 -13 -41 15 -23 13 -34 31 20 69 93 132 106 71 30 12 -68 0 -112 -2 -155 -14 -246 128 1002 301 70 103 -101 20 -117 -54 -89 -62 -77 -56 -67 -30 -53 -38 -40 -1 -21 -3 18 59 60 94 63 70 7 12 -55 -43 -84 -67 -80 -67 -99 -91 -102 -68 -91 -81 -86 -57 -103 -68 -108 -61 -81 -58 -115 -79 -106 -65 -134 -86 -92 -64 -141 -87 -130 -80 -158 -113 -131 -100 -145 -51 -118 -31 -40 -14 26 9 -3 -24 -114 -78 -161 -105 -202 -78 -215 -91 -352 100 893 127 -96 28 -202 -106 -218 -211 -206 -150 -202 -170 -185 -150 -172 -120 -146 -102 -107 -83 -60 -50 -11 -50 -10 -80 -141 -139 -174 -148 -178 -179 -171 -170 -194 -186 -149 -190 -136 -157 -131 -116 -128 -101 -105 -110 -65 -100 -94 -89 -89 -119 -100 -111 -82 -103 -119 -116 -141 -126 -138 -129 -134 -101 -128 -109 -120 -116 -129 -90 -96 -36 -25 -5 32 -23 -110 -89 -151 -166 -192 -192 -176 -99 -217 -72 67 128 334 169 -59 -53 -166 -146 -188 -158 -182 -156 -157 -136 -151 -151 -135 -98 -98 -81 -60 -29 -36 -12 19 -26 -40 -82 -119 -128 -123 -179 -163 -170 -154 -186 -164 -168 -177 -178 -173 -156 -153 -169 -172 -171 -155 -164 -131 -172 -208 -137 -176 -163 -175 -136 -175 -163 -168 -160 -183 -172 -184 -178 -191 -155 -187 -163 -189 -166 -166 -180 -180 -148 -137 -132 -77 -22 -33 -33 -110 -128 -161 -224 -217 -188 -184 -116 -255 -242 179 232 217 19 -156 -177 -216 -196 -238 -242 -234 -194 -223 -220 -191 -164 -167 -150 -147 -110 -154 -46 -97 -4 -41 20 -31 -57 -123 -95 -172 -124 -175 -114 -159 -159 -157 -121 -161 -109 -163 -119 -168 -121 -128 -123 -146 -117 -128 -119 -160 -128 -145 -156 -140 -140 -155 -96 -137 -117 -161 -127 -136 -157 -124 -128 -134 -90 -120 -48 -37 15 41 18 13 -57 -80 -71 -108 -96 -152 -31 -157 -81 -238 445 867 244 20 -24 -83 -65 -106 -87 -116 -92 -120 -73 -99 -77 -123 -62 -97 -47 -77 -15 -14 46 45 48 47 8 -51 -72 -101 -103 -126 -115 -126 -90 -150 -116 -107 -108 -114 -118 -94 -87 -104 -78 -87 -93 -82 -77 -107 -84 -109 -81 -108 -73 -112 -99 -102 -83 -102 -106 -129 -111 -128 -107 -118 -94 -117 -93 -25 -16 12 67 24 5 -31 -73 -106 -71 -159 -45 -175 -76 -269 -157 886 638 152 -19 -112 -69 -110 -33 -64 -34 -64 -50 -47 -61 -31 -25 -27 18 16 44 43 79 105 142 169 92 67 26 5 -15 -36 -42 -43 -72 -70 -26 -45 -36 -41 -24 -50 -48 -51 -71 -23 -44 -67 -44 -56 -50 -61 -83 -55 -54 -54 -47 -63 -57 -57 -25 -46 -60 0 -11 -25 -16 8 63 67 129 111 68 25 2 6 -18 -54 -3 -100 -46 -120 -298 351 940 368 -50 14 -90 -59 94 -95 -68 -37 -60 -41 -5 -40 1 -8 7 -4 -3 61 86 73 118 130 125 127 47 34 -70 -63 -11 -27 -18 3 -16 -20 -25 -83 -9 -1 -63 7 3 -8 10 10 38 4 38 32 -14 8 -15 38 58 52 30 31 40 24 72 30 13 76 97 114 185 195 165 133 72 56 2 21 -11 6 -27 -14 -164 -47 943 767 113 112 -5 -14 -28 11 -107 -23 -5 -32 18 -23 -22 -15 -33 -25 9 -4 33 67 40 22 74 119 78 11 -68 -24 -65 -63 -35 -57 -62 -76 -69 -65 -66 -54 -57 -86 -71 -62 -72 -67 -85 -147 -86 -64 -146 -107 -67 -94 -70 -116 -39 -73 -180 -125 -8 -31 29 64 81 -3 -3 -47 -120 -103 -103 -74 -103 -154 -233 -241 644 809 247 -13 -127 -48 -126 -127 -198 -57 -89 -102 -69 -97 -83 -51 -62 -132 -43 -26 -43 -11 -2 2 68 71 -31 28 -5 4 -11 -76 -91 -61 -43 -40 -17 -39 -29 -12 -7 -34 -128 -57 -12 -51 -24 -43 -22 -43 -7 -48 -68 -52 -16 -46 -43 4 38 72 151 93 26 12 11 -35 -38 -41 -37 -115 -84 -200 -228 568 893 248 -16 9 -63 -48 -81 -23 -111 -48 -48 -49 -39 -10 -41 2 -12 17 -45 20 10 61 89 83 111 89 38 20 -75 -5 -41 -16 -42 -39 -54 -44 -40 -16 -42 -31 -43 -19 -49 -28 -20 -36 -24 -26 -77 -6 -44 -32 -34 -71 -61 -41 -33 29 27 103 79 59 6 -6 -81 -79 -84 -79 -80 -73 -159 -230 286 679 374 69 -9 5 -116 -66 -122 -47 -106 -81 -70 -59 -68 -53 -68 -28 -30 0 -24 27 44 60 85 100 69 24 -50 -18 -64 -35 -77 -50 -73 -53 -60 -33 -40 -39 -52 -48 -47 -9 -39 -62 -38 -41 -42 -47 -66 -28 -58 -67 -70 -55 -56 -45 -37 6 4 86 99 35 6 -6 -88 -82 -133 -104 -143 -118 -212 -193 57 438 447 145 -95 -22 -164 -104 -230 -110 -170 -145 -135 -132 -116 -112 -80 -71 -72 -46 -47 -9 3 56 15 54 21 -13 -79 -84 -93 -110 -119 -111 -128 -108 -122 -119 -87 -77 -115 -101 -86 -96 -143 -146 -135 -108 -123 -91 -146 -116 -132 -120 -148 -126 -141 -129 -156 -122 -134 -42 -48 33 23 39 -21 -39 -122 -111 -166 -107 -140 -84 -193 -125 -213 155 654 149 -74 -1 -149 -111 -176 -150 -187 -130 -156 -109 -142 -96 -139 -90 -138 -84 -109 -47 -83 -35 -55 -32 -16 -36 -124 -100 -171 -124 -174 -146 -188 -160 -176 -167 -138 -142 -164 -159 -164 -156 -171 -134 -132 -153 -173 -150 -132 -149 -149 -136 -163 -131 -161 -151 -141 -145 -146 -126 -164 -77 -96 -49 -15 -28 -26 -60 -113 -133 -201 -149 -250 -116 -260 -149 -369 94 882 117 -72 22 -211 -129 -189 -154 -235 -155 -192 -151 -178 -137 -149 -132 -141 -129 -124 -88 -104 -73 -43 -43 -13 -48 -51 -64 -107 -83 -103 -123 -135 -120 -109 -99 -103 -104 -122 -129 -102 -103 -100 -89 -139 -92 -80 -105 -114 -108 -101 -113 -120 -90 -108 -109 -134 -125 -82 -92 -94 -81 -125 -75 -95 -30 -3 41 75 16 18 -37 -66 -39 -113 -68 -124 -39 -125 -1 -283 231 1058 200 -24 99 -81 -26 -99 -53 -89 -63 -65 -50 -64 -13 -43 4 -14 9 -11 55 43 102 82 124 97 59 8 22 -55 -26 -71 -47 -77 -52 -68 -41 -55 -30 -56 -35 -56 -22 -52 -21 -34 -31 -45 -20 -55 -24 -40 -9 -24 -49 -25 -4 -39 -2 -22 -8 -36 -10 -32 -7 -44 -9 -21 -12 -29 -8 19 79 86 148 102 19 10 9 -45 -7 -88 37 -97 51 -175 -14 803 454 233 110 -28 55 -86 28 -25 -1 -12 16 0 23 17 47 10 46 74 108 97 113 145 168 135 117 113 70 43 17 -13 -17 -5 7 -8 -4 -68 5 -21 -15 2 0 -1 -23 -50 3 -29 -8 -19 0 -18 -4 -18 -23 -50 -1 -24 -6 -16 -19 -20 -6 7 2 -23 -7 5 8 -7 5 24 63 65 107 132 90 26 4 6 -36 -69 13 -66 12 -147 -186 469 735 265 17 -35 -56 -113 -39 -70 -69 -68 -83 -95 -95 -43 -43 -55 3 -31 -4 -21 9 55 50 104 82 61 42 8 -23 -24 -12 -35 -32 -19 -40 -49 -14 -35 -6 -19 15 -41 -18 -4 -42 -3 8 -15 16 -40 -38 -18 -30 -7 -6 -20 6 -24 0 -6 2 -10 -11 -1 -2 -38 59 58 109 150 46 90 27 -19 -20 -17 -6 -59 -44 -56 -225 4 931 691 100 67 -63 0 -39 -77 -37 -4 -58 9 -6 -19 10 -1 34 -10 38 50 49 107 107 131 136 103 66 44 -14 -17 -16 -26 -26 -37 -47 -10 -31 -66 -26 -18 -15 -4 -39 -45 -5 -20 -15 -26 -115 -15 0 -9 -20 -96 -12 -22 -14 -15 -103 -25 -56 -31 -12 -51 -28 -40 -23 -84 -60 26 -8 106 135 64 1 -26 -65 -92 -53 -132 -112 -165 -138 -313 224 1009 461 -23 -94 -103 -90 -116 -102 -68 -80 -76 -85 -93 -146 -78 -66 -67 -13 -14 -8 26 66 79 91 93 71 27 -103 -50 -60 -114 -56 -71 -185 -116 -52 -77 -83 -83 -61 -72 -96 -83 -101 -80 -91 -87 -93 -95 -79 -118 -98 -81 -87 -76 -95 -112 -81 -91 -91 -101 -84 -75 -78 -76 -70 -70 -78 -54 -12 -24 97 81 -33 0 13 -26 -57 -122 -100 -58 -158 -129 -280 105 1055 400 -7 9 -130 -88 -78 -68 -186 -86 -53 -103 -59 -81 -37 -55 2 -65 -80 -32 -13 41 118 82 114 75 21 -15 -31 -56 -63 -36 -87 -68 -83 -128 -56 -71 -44 -39 -70 -60 -39 -32 -73 -81 -48 -43 -63 -61 -80 -35 -36 -28 -41 -51 -64 -2 -23 -44 -51 -11 -45 -95 -63 -21 -7 -17 -38 44 111 104 42 34 18 -23 -58 -11 -159 -24 -126 -138 -339 113 968 406 23 -22 -137 -20 -156 -24 -125 -83 -115 -105 -82 -73 -86 -47 -78 -36 -72 -16 -17 -23 25 50 -2 55 3 -12 -69 -94 -110 -67 -112 -83 -167 -74 -104 -96 -158 -110 -96 -104 -112 -95 -95 -99 -117 -119 -141 -81 -123 -137 -131 -113 -125 -97 -142 -129 -115 -124 -137 -109 -135 -106 -106 -54 -57 1 3 -6 -34 -60 -85 -92 -135 -97 -125 -125 -159 -203 -145 505 540 41 -120 -113 -185 -160 -217 -167 -228 -181 -184 -169 -177 -171 -165 -165 -159 -123 -132 -105 -107 -68 -62 -53 -69 -95 -175 -179 -227 -214 -238 -237 -264 -224 -238 -220 -230 -219 -245 -215 -244 -224 -245 -223 -237 -225 -255 -236 -253 -239 -275 -238 -246 -233 -274 -255 -267 -240 -272 -242 -264 -245 -249 -220 -247 -180 -177 -144 -97 -127 -146 -176 -225 -218 -293 -223 -250 -202 -297 -285 -338 163 690 85 -163 -104 -239 -171 -224 -227 -257 -210 -222 -184 -193 -183 -192 -147 -163 -113 -120 -65 -75 -34 -52 7 -34 -81 -123 -103 -190 -142 
#avR[uV]
-6589 -5623 -5328 -4375 -4080 -2890 -2782 -1506 -1354 -366 -27 -29 -13 -28 -3 -17 -117 -693 -854 -250 -50 -51 -6 1 -17 -2 -30 -34 -39 -59 -65 -83 -94 -104 -151 -170 -202 -272 -324 -360 -367 -375 -311 -194 -124 -73 -54 -28 -27 -29 -13 -31 -22 -38 -42 -38 -25 -36 -24 -30 -30 -34 -24 -27 -4 -34 -29 -14 -13 -34 -8 -20 -37 -46 -50 -52 -52 -52 -44 -54 -43 -20 -47 -49 -57 -78 -52 -84 -105 -126 -156 -159 -164 -142 -74 -61 -52 -47 -38 -32 -46 -29 -160 -676 -755 -398 -113 -93 -54 -15 -62 -28 -55 -50 -53 -72 -97 -107 -117 -144 -186 -185 -227 -280 -349 -388 -430 -405 -384 -239 -166 -116 -87 -29 -21 -29 -20 -14 -33 -33 -42 -25 -38 -35 -40 -28 -31 -32 -31 -49 -37 -24 -49 -21 -48 -44 -32 -56 -46 -36 -45 -51 -59 -53 -53 -55 -62 -48 -59 -64 -49 -81 -103 -103 -125 -156 -201 -177 -143 -96 -74 -71 -70 -41 -52 -44 -14 -95 -488 -898 -468 -109 -125 -61 -72 -52 -69 -64 -64 -87 -76 -97 -121 -126 -163 -176 -228 -246 -308 -365 -378 -420 -424 -388 -285 -157 -127 -68 -47 -42 -26 -17 -21 -31 -12 -3 -27 -28 -47 -3 -32 -29 -30 -39 -44 -37 -40 -36 -47 -44 -78 -48 -49 -66 -67 -54 -54 -48 -69 -66 -73 -59 -88 -107 -124 -156 -197 -190 -167 -83 -56 -37 -48 -33 -50 -6 -29 -63 -456 -878 -468 -90 -116 -44 -38 -12 -40 -34 -39 -42 -42 -54 -48 -86 -86 -99 -142 -177 -256 -282 -331 -370 -356 -347 -251 -126 -78 -33 -13 -9 22 2 3 13 2 10 15 9 -6 10 -10 -17 -8 -6 -10 6 1 10 11 -6 26 16 -2 12 7 6 3 12 4 12 12 3 -13 6 5 5 -7 -13 -73 -79 -117 -83 -16 33 49 61 77 87 49 113 37 -55 -403 -823 -348 46 50 112 104 134 117 101 93 88 73 66 53 43 16 -4 -31 -93 -138 -202 -249 -267 -271 -202 -106 4 87 101 116 140 131 136 150 132 138 133 144 146 157 162 144 191 173 190 200 190 199 187 189 200 193 199 203 192 194 198 194 204 191 197 192 190 175 188 182 181 181 183 174 147 139 112 28 47 41 77 147 145 164 185 155 186 126 189 23 -336 -473 -323 -64 114 152 174 170 151 127 113 128 123 71 62 62 24 -6 -30 -68 -125 -206 -254 -289 -299 -270 -184 -88 -27 29 30 49 40 60 37 31 35 52 28 30 42 28 34 27 42 39 24 41 32 30 51 39 26 22 28 26 35 34 42 23 37 31 43 18 24 36 42 17 22 17 24 22 21 35 -8 -1 -24 -81 -83 -90 -52 24 31 51 70 18 71 22 83 -76 -489 -507 -281 -56 32 66 81 72 77 86 81 61 84 59 42 23 24 7 -23 -83 -116 -195 -221 -270 -274 -237 -118 -14 41 82 122 129 129 136 141 138 126 123 113 109 138 119 117 107 117 107 107 111 99 81 98 88 106 103 112 95 91 74 93 110 92 90 97 64 86 87 86 99 82 41 37 2 -28 -37 -21 19 82 93 101 98 126 126 125 125 -43 -561 -703 -82 59 33 123 100 133 114 116 94 94 68 59 51 26 0 -8 -60 -102 -161 -222 -281 -304 -320 -248 -141 -43 -15 53 74 76 70 89 84 100 109 86 87 95 86 90 87 110 110 122 128 100 108 112 109 131 138 141 157 150 153 161 152 157 163 164 165 160 158 166 159 157 151 119 97 59 20 35 30 41 105 134 123 158 145 165 158 135 -149 -708 -566 -6 129 137 154 164 149 146 127 111 119 111 96 76 66 42 13 -34 -80 -117 -201 -240 -293 -263 -186 -90 6 44 90 108 121 123 137 134 109 119 109 107 98 96 94 84 97 85 84 83 74 74 57 67 61 56 58 59 64 65 53 68 55 64 70 52 54 46 62 25 6 0 -52 -47 -56 -14 32 59 62 83 95 98 82 83 -24 -521 -780 -299 21 6 49 45 86 58 61 64 45 42 21 0 -17 -11 -50 -88 -107 -175 -244 -286 -321 -343 -284 -193 -78 -4 63 67 73 94 89 101 107 107 103 100 124 119 137 125 106 127 120 139 143 140 145 154 144 160 163 138 137 139 152 153 131 149 144 134 153 122 97 93 61 18 33 17 80 138 143 157 155 159 153 158 130 -222 -748 -507 18 81 112 131 110 130 162 100 94 102 74 63 46 36 11 -18 -60 -111 -168 -241 -261 -272 -277 -195 -82 -11 75 97 109 109 103 115 115 110 108 98 104 110 97 97 93 87 94 87 109 122 84 80 95 80 83 84 84 112 78 78 98 75 27 16 16 -26 -41 -27 16 95 111 109 105 123 147 133 127 -80 -617 -545 -36 65 75 106 109 133 133 89 81 90 74 70 40 28 33 -5 -45 -100 -148 -198 -261 -267 -258 -186 -66 -12 58 102 104 147 165 143 155 157 158 161 164 158 140 136 154 150 127 141 131 126 132 129 136 160 150 134 108 122 102 79 65 23 -17 -32 9 19 70 96 96 113 103 109 133 124 -104 -584 -638 -58 53 10 110 56 102 77 95 67 60 52 29 8 -10 -43 -77 -121 -137 -203 -251 -295 -316 -307 -233 -142 -48 13 64 68 69 54 59 52 60 51 50 51 52 51 42 45 54 43 41 46 58 52 57 44 66 59 35 40 45 37 21 -20 -6 -81 -74 -53 -28 30 72 74 96 75 112 85 107 -26 -480 -638 -260 -78 29 40 82 67 90 57 67 59 40 23 17 -17 -10 -48 -76 -130 -145 -228 -266 -310 -304 -249 -164 -67 18 35 59 72 67 72 85 71 66 66 78 71 76 71 76 56 66 63 75 59 82 64 60 60 75 66 69 62 51 68 36 -5 -8 -80 -70 -63 -13 33 56 75 76 68 100 23 110 -52 -391 -561 -455 -123 42 0 77 41 78 36 59 31 7 5 -12 -15 -43 -76 -93 -129 -166 -229 -282 -316 -316 -268 -165 -73 2 38 61 81 78 75 78 79 72 68 79 64 84 80 46 57 69 55 60 49 39 38 49 44 59 40 51 49 43 34 47 52 31 5 -10 -54 -70 -83 -59 -26 10 45 49 37 65 9 57 -23 -223 -467 -680 -250 17 7 56 33 69 45 53 25 0 -6 -4 -35 -22 -65 -78 -126 -172 -214 -280 -330 -331 -314 -248 -149 -65 -22 25 26 36 38 45 31 30 32 32 32 28 40 27 8 40 31 9 39 26 34 27 41 31 23 31 35 49 36 36 14 40 29 53 5 -6 -15 -65 -99 -75 -49 -5 33 42 25 50 20 53 31 -22 -407 -825 -408 -18 -32 8 20 30 14 42 11 18 0 -10 -27 -39 -62 -64 -97 -151 -202 -246 -305 -336 -344 -276 -192 -109 -23 35 41 69 72 80 69 75 93 74 56 83 65 61 60 45 68 78 54 58 67 70 63 44 56 71 52 59 64 58 66 48 66 63 55 53 36 40 44 2 -31 -70 -112 -80 -35 25 26 57 49 52 43 69 29 -25 -449 -821 -359 -5 -11 54 76 87 43 80 44 55 63 39 23 -5 -22 -32 -71 -106 -182 -228 -253 -313 -308 -264 -155 -76 -16 30 35 71 27 59 61 65 56 57 41 50 48 51 37 36 39 52 47 50 42 74 63 65 47 52 43 60 46 64 57 72 66 55 58 60 56 61 58 76 43 65 33 27 -9 -33 -80 -73 -43 -3 24 49 57 79 45 80 42 54 -194 -784 -541 -132 9 53 39 77 56 55 40 28 10 12 12 6 -15 -35 -65 -107 -129 -193 -255 -296 -324 -308 -249 -127 -50 -1 41 77 89 81 79 74 72 78 57 53 64 56 56 46 56 58 41 42 33 52 31 43 35 49 56 23 8 25 12 20 18 21 3 -8 1 12 5 -9 -10 0 -7 -21 -60 -62 -116 -126 -104 -84 -10 -1 19 40 11 29 18 55 -111 -631 -650 -219 -43 -14 26 25 30 3 22 -15 -17 -14 -21 -44 -60 -59 -115 -140 -181 -254 -300 -344 -369 -400 -336 -224 -138 -70 -34 -5 0 25 23 19 42 31 34 27 14 7 -3 19 2 9 22 5 -17 8 0 6 9 12 10 -2 9 -3 -5 26 4 14 2 4 3 -6 -7 -20 -53 -48 -118 -137 -106 -115 -81 -22 -28 -3 -17 6 -26 3 10 -319 -828 -651 -101 -51 -50 -23 -30 -13 -51 -38 -34 -59 -50 -74 -97 -100 -122 -144 -191 -219 -270 -352 -368 -388 -397 -300 -185 -116 -55 -22 -18 -11 -8 6 19 0 20 21 3 6 7 7 6 4 6 -2 6 10 28 1 15 9 6 27 0 17 12 19 44 22 25 10 5 22 20 24 23 35 15 -49 -25 -79 -101 -99 -70 -12 14 36 14 35 56 61 69 9 -490 -843 -400 -25 28 54 55 57 54 38 33 23 25 18 27 -18 -16 -65 -97 -131 -169 -222 -291 -323 -342 -296 -198 -83 4 41 58 91 64 91 141 69 79 76 80 91 70 78 81 89 87 90 68 65 65 88 55 70 74 63 71 57 71 69 54 52 69 62 63 70 47 82 63 49 60 12 8 0 -62 -96 -40 -36 5 51 45 92 106 83 93 96 32 -395 -827 -391 6 20 89 77 88 79 80 74 67 66 38 33 4 -7 -22 -61 -69 -136 -228 -258 -312 -334 -309 -192 -94 -4 48 47 74 100 107 98 76 114 89 81 82 76 82 75 87 69 101 82 77 92 62 82 116 87 84 107 104 91 101 97 101 105 96 97 116 94 93 72 95 60 48 24 -13 -37 -32 -7 48 72 93 87 115 110 93 115 53 -357 -735 -362 19 16 76 67 91 77 73 71 56 51 36 8 2 -8 -25 -66 -91 -164 -209 -261 -327 -332 -262 -210 -99 -27 23 69 100 87 91 98 89 83 80 80 121 83 82 68 59 69 73 74 73 75 91 68 75 85 61 58 85 73 63 65 72 69 89 62 50 62 50 20 20 -41 -48 -50 -43 18 59 71 81 63 101 76 102 57 -223 -459 -579 -130 37 30 84 41 93 79 82 42 40 17 38 -1 5 -29 -48 -97 -124 -202 -247 -277 -302 -302 -215 -101 -28 33 80 91 115 118 114 111 113 116 128 115 123 107 114 104 113 104 89 98 93 103 85 97 94 89 86 90 101 72 81 57 77 60 59 56 43 55 45 4 11 -40 -61 -73 -44 -28 29 52 64 63 63 37 85 19 -154 -421 -758 -231 6 -12 71 34 49 55 35 11 20 7 -8 -14 -43 -60 -91 -135 -175 -229 -280 -333 -351 -319 -296 -188 -83 -6 23 23 
#avL[uV]
-19712 -17207 -15776 -13357 -11873 -9677 -7894 -5686 -3945 -1428 63 46 41 42 63 101 267 -26 -271 -118 -1 23 34 70 41 50 54 45 61 49 63 63 70 64 103 96 96 120 152 154 137 122 106 80 79 77 74 74 41 80 84 69 85 69 64 74 81 73 71 74 79 97 74 79 87 94 79 83 83 92 88 94 96 105 115 109 149 103 96 109 116 141 124 106 121 145 117 132 139 121 94 97 129 161 154 215 177 159 185 165 198 208 437 267 -197 27 168 131 158 213 175 208 171 180 164 194 171 196 192 196 202 199 198 213 231 254 257 261 198 183 179 149 142 161 125 132 134 166 120 134 160 126 114 130 105 129 124 129 108 129 115 127 127 126 144 119 96 126 110 112 123 116 127 110 88 92 117 99 104 114 98 102 105 60 68 28 32 51 83 66 56 106 55 113 50 136 104 257 135 -277 -61 13 44 104 32 118 70 125 75 100 101 105 90 107 120 120 127 128 162 157 151 179 149 138 74 30 32 33 8 28 15 45 27 28 0 21 18 33 16 11 34 18 13 31 27 35 26 46 25 23 46 46 25 43 33 48 37 55 23 50 26 55 20 38 9 8 0 15 29 19 18 69 25 100 27 119 25 216 132 -313 8 -7 -19 98 3 94 61 84 66 79 63 78 47 82 72 80 72 104 130 127 120 139 106 126 73 57 30 58 39 68 39 59 48 67 67 71 43 63 64 59 48 86 56 84 51 58 43 81 53 83 36 92 66 63 44 103 63 91 57 112 79 96 82 105 36 86 27 37 47 19 51 44 26 68 34 90 40 108 34 104 49 292 126 -258 78 49 -46 96 27 96 99 104 66 107 91 106 86 107 82 112 92 127 131 146 162 142 173 108 113 103 60 79 52 63 68 59 52 79 71 45 70 29 39 16 14 0 -10 -15 -17 -46 -24 -23 -27 -32 -7 -24 -17 -34 -19 -9 -9 4 0 5 0 5 -11 2 -9 0 -3 5 -19 -1 -42 -37 -10 -47 -3 44 -6 41 43 51 66 39 11 68 42 117 140 -89 -95 -12 -35 37 24 65 55 79 53 56 66 82 81 89 77 89 95 108 125 154 153 135 155 122 106 103 81 77 110 102 97 97 124 105 99 118 118 109 103 97 113 108 109 104 102 82 114 130 83 118 111 117 89 113 104 104 108 119 113 116 124 131 98 119 113 130 116 112 124 124 93 107 100 70 57 67 70 109 84 105 142 127 132 102 76 149 219 110 79 -22 13 101 100 121 111 140 138 135 114 125 135 121 111 113 109 122 124 173 132 183 138 168 103 82 50 71 30 67 28 67 17 48 50 54 29 64 27 53 29 67 37 37 39 55 32 46 49 70 51 55 65 49 58 70 35 56 32 74 50 53 85 49 53 57 18 48 15 9 -12 -16 4 0 33 19 6 30 23 51 -39 55 -1 200 -52 -298 -142 -44 2 1 -1 13 8 28 21 42 21 44 32 79 46 77 65 109 92 122 106 118 124 88 64 60 61 49 40 56 51 49 25 62 32 37 37 38 45 25 22 22 3 4 5 11 3 24 8 16 -8 10 -23 9 -2 -4 -13 -1 -1 14 1 16 1 5 -9 9 -5 -40 -36 -39 -60 -36 -19 2 2 12 -8 40 -38 48 -21 134 192 -310 -196 -111 -50 15 -25 0 -49 -25 -38 -7 -21 -19 -1 -14 -13 0 -20 4 7 26 41 40 39 4 23 -5 -23 -26 -33 -26 -28 -29 -14 -14 -35 -25 -26 -22 -30 -10 -10 -3 5 -25 -8 9 -3 5 9 12 31 13 11 11 3 14 15 8 -8 2 9 -26 -19 -4 -18 -18 -50 -50 -70 -59 -23 -12 -17 -34 -17 -1 -44 26 -5 48 236 -2 -315 -126 27 -14 43 21 -114 42 20 -3 22 9 -6 30 7 12 19 47 55 41 57 88 72 73 48 1 3 -23 20 14 -28 -26 -30 -53 -41 -38 -32 12 -55 -58 -21 -68 -55 -57 -68 -78 -100 -74 -101 -101 -61 -86 -70 -97 -112 -109 -99 -99 -95 -93 -126 -90 -87 -118 -121 -132 -170 -156 -140 -108 -94 -112 -73 -94 -68 -84 -56 -67 57 146 -333 -321 -94 -124 -52 -54 -34 -73 0 -32 -43 -26 -51 -14 -6 -6 19 28 23 59 58 69 100 119 82 8 -17 -2 13 -30 -5 -7 -25 -14 -10 2 -2 0 -2 -14 -5 15 6 2 7 6 9 49 22 8 62 40 9 28 10 31 -9 16 86 56 -7 14 -30 -34 -40 16 -5 -11 34 22 24 -5 4 49 111 221 -174 -334 -167 -22 57 -16 40 28 82 -1 26 31 14 37 42 23 29 102 55 69 107 107 132 131 77 39 56 -14 -25 -54 -43 -16 -14 -25 -44 -48 -65 -51 -60 -69 -64 -41 19 -32 -54 -31 -47 -30 -49 -31 -62 -44 -24 -28 -41 -26 -18 -43 -61 -65 -104 -53 -24 -18 -44 -21 -19 -25 -23 31 -3 88 223 -133 -350 -156 -14 -12 -7 8 9 -21 36 2 6 10 14 3 36 19 47 47 102 86 118 101 91 91 33 3 -4 -22 24 -30 -3 -14 2 2 10 7 4 -13 5 -2 10 -8 9 0 -5 3 -11 -6 29 -17 0 -5 8 33 23 12 14 -11 -17 -37 -22 -17 9 -10 24 22 15 21 4 12 65 186 24 -190 -150 -12 -8 -24 45 16 47 6 46 31 32 32 43 49 56 45 60 65 91 93 99 110 88 49 30 15 28 -3 18 -9 24 2 12 4 11 -8 -9 -5 0 0 -2 -20 -3 15 -9 1 -9 3 20 -8 6 17 18 10 16 0 10 -1 1 -24 -39 5 1 -11 38 24 61 44 56 77 104 171 152 -48 -107 -47 50 16 84 57 133 64 98 93 97 96 93 91 82 92 101 99 119 121 138 116 146 93 66 47 58 43 39 42 50 46 57 41 55 55 26 26 44 35 41 43 72 82 71 57 73 49 84 64 69 70 85 70 84 79 93 65 85 29 41 2 17 12 45 43 86 61 100 61 72 58 116 105 272 117 -150 13 47 -3 83 67 98 90 114 85 116 85 109 90 116 100 142 126 168 143 202 192 206 181 136 101 126 86 116 80 112 90 118 104 117 108 87 90 108 99 109 112 108 85 94 95 117 95 85 91 96 90 106 81 96 95 87 101 89 80 96 55 75 45 44 71 57 69 88 83 129 99 163 77 168 96 288 132 -248 116 63 0 154 86 127 108 155 110 134 113 138 117 132 130 138 145 169 167 201 207 201 204 148 132 93 60 62 42 42 56 61 55 44 28 40 49 50 64 45 47 52 33 65 42 31 45 50 49 53 57 54 41 51 49 71 60 37 36 38 33 67 38 50 0 1 -15 -21 44 26 46 36 16 56 26 66 7 59 -13 225 51 -382 29 21 -68 34 -18 31 18 27 25 21 5 28 -1 35 7 26 28 61 49 81 49 94 60 58 33 31 -8 26 2 17 21 28 8 18 3 12 2 17 2 17 -1 21 -3 0 0 8 -5 4 -13 -2 -16 -7 15 -11 -19 -2 -27 -19 -27 0 -21 -6 -22 2 -21 -22 -12 -10 -10 -28 -54 -48 -70 -40 7 -5 -19 9 -23 26 -51 33 -60 104 108 -210 -69 -108 -87 -5 -61 26 -50 -8 -18 -4 -17 -6 -23 -16 -27 10 -2 -1 -16 23 43 39 35 52 37 -21 -27 -31 -33 -28 -31 -36 -45 -30 -33 12 -32 -11 -20 -30 -27 -22 -10 8 -22 0 -10 -11 -15 -7 -14 -11 -10 25 -3 5 0 2 5 4 3 -1 -2 11 3 0 0 5 0 -7 -16 -17 -22 -36 -15 22 2 -3 17 31 -15 35 -18 82 195 -36 -226 -89 8 33 29 72 14 51 40 58 71 79 81 54 63 71 55 93 93 143 142 130 146 121 106 66 37 28 34 20 9 13 12 5 8 21 -6 12 -1 10 -9 21 12 -1 20 0 1 7 -12 27 24 7 17 7 0 17 -2 5 -2 -2 -3 5 6 4 5 39 -18 -19 -23 -44 18 -10 20 26 29 14 13 41 46 40 164 156 -284 -192 -24 -24 73 12 44 65 54 22 60 22 30 51 41 51 35 79 66 72 98 95 103 95 96 72 42 24 38 23 21 25 23 25 25 7 13 39 18 10 8 0 26 31 0 16 8 14 72 10 -6 2 11 58 9 8 4 1 55 8 29 18 6 26 11 17 6 45 37 4 19 -39 -51 1 34 26 42 50 32 81 56 93 69 230 77 -335 -145 30 56 50 40 58 49 32 43 45 51 61 95 67 57 83 59 76 91 91 95 101 102 78 45 21 75 17 15 40 10 7 68 52 0 19 21 16 11 14 31 18 32 15 34 32 37 27 32 53 36 29 29 28 36 49 33 42 33 44 31 21 34 15 21 27 28 34 4 18 -41 -12 45 18 -13 -6 20 45 21 2 71 48 194 118 -377 -104 2 -17 53 27 14 11 99 28 6 44 25 44 25 45 9 79 94 92 124 97 67 105 68 39 30 13 0 18 10 -23 11 2 24 38 -2 13 -7 -8 11 7 -14 -10 4 20 -2 -14 16 4 2 -16 -15 -32 -21 -7 -2 -47 -33 -18 -9 -40 -23 24 1 -19 -42 -17 4 -45 -77 -59 -15 -22 -38 -18 -2 -34 61 -36 48 45 228 94 -358 -123 -27 8 65 -18 71 -20 57 27 58 53 43 50 63 39 71 60 99 94 117 148 144 128 133 63 47 22 40 36 32 7 38 13 80 14 38 32 58 40 30 44 54 36 35 37 51 51 59 26 54 60 67 55 51 36 74 64 50 58 58 50 76 48 54 30 32 19 21 30 47 36 34 33 60 41 43 55 68 123 220 -149 -115 34 71 69 96 99 116 86 129 114 117 118 113 129 121 138 143 141 161 180 204 189 198 191 159 122 145 118 130 114 121 118 141 112 121 106 108 106 122 107 125 116 127 115 132 119 144 125 147 130 159 134 141 129 154 155 159 151 165 152 168 155 164 137 162 133 127 128 103 132 132 146 154 137 187 135 156 133 180 204 330 88 -138 52 119 84 144 111 144 142 175 152 157 134 149 144 166 140 168 152 177 163 197 192 215 153 174 155 134 80 131 94 
#avF[uV]
26302 22830 21104 17732 15953 12568 10676 7192 5300 1794 -36 -16 -27 -13 -60 -84 -149 719 1125 368 52 28 -27 -72 -23 -47 -24 -10 -22 10 1 20 23 40 47 74 105 151 171 205 229 253 204 114 45 -3 -20 -45 -13 -51 -70 -37 -62 -30 -22 -36 -56 -37 -46 -44 -48 -63 -50 -51 -82 -60 -49 -69 -69 -58 -79 -74 -59 -59 -64 -57 -97 -51 -51 -54 -73 -120 -76 -57 -63 -66 -65 -47 -34 4 61 61 34 -19 -79 -153 -124 -111 -146 -132 -151 -178 -277 408 952 370 -54 -37 -104 -198 -112 -180 -115 -129 -111 -122 -74 -88 -75 -51 -16 -13 29 66 118 133 172 144 186 55 -12 -33 -54 -131 -103 -102 -113 -151 -87 -100 -118 -100 -75 -94 -64 -100 -92 -96 -76 -80 -78 -102 -78 -105 -95 -75 -63 -70 -63 -76 -77 -65 -68 -57 -35 -36 -54 -50 -44 -50 -49 -21 -1 43 57 128 169 125 60 29 18 -34 14 -72 1 -91 -89 -162 352 1175 530 96 81 -42 39 -66 0 -60 -10 -12 -24 -8 30 18 42 56 100 117 145 208 227 241 275 249 210 127 95 34 38 14 11 -27 -6 2 12 -18 9 -4 31 -7 -2 10 16 7 16 2 14 -9 22 20 31 2 23 22 33 6 17 -7 46 15 47 3 67 69 114 148 198 174 137 64 37 -32 23 -67 23 -113 3 -153 324 1191 460 97 135 -53 34 -81 -20 -50 -27 -37 -21 -23 0 3 13 19 70 72 125 155 210 230 249 221 178 68 48 -24 -26 -58 -62 -61 -52 -81 -70 -81 -59 -73 -57 -69 -37 -68 -47 -77 -40 -64 -44 -91 -65 -76 -62 -109 -63 -75 -52 -109 -67 -104 -62 -125 -91 -100 -68 -112 -41 -91 -19 -23 25 59 65 38 -9 -102 -83 -151 -117 -195 -84 -218 -87 -236 276 1081 270 -95 -4 -208 -131 -230 -217 -205 -159 -195 -164 -172 -140 -151 -98 -107 -60 -34 6 55 86 124 98 93 -7 -108 -148 -181 -169 -204 -200 -196 -203 -211 -209 -179 -214 -175 -197 -179 -159 -192 -162 -174 -182 -144 -175 -164 -162 -167 -186 -175 -185 -157 -174 -188 -184 -208 -190 -202 -193 -195 -164 -190 -173 -180 -178 -189 -155 -146 -97 -74 -18 0 -38 -121 -140 -186 -207 -236 -222 -226 -137 -257 -65 218 333 412 159 -101 -116 -212 -194 -217 -182 -193 -181 -179 -137 -144 -144 -113 -70 -58 -26 17 80 100 135 164 114 61 -17 -75 -111 -108 -159 -142 -157 -134 -156 -141 -152 -147 -149 -151 -131 -132 -141 -150 -148 -128 -144 -114 -145 -181 -122 -145 -133 -145 -115 -149 -139 -147 -131 -156 -145 -160 -142 -155 -135 -161 -131 -153 -133 -137 -146 -146 -128 -99 -98 -45 23 16 19 -56 -108 -136 -193 -198 -150 -174 -98 -233 -143 379 427 303 43 -134 -166 -203 -183 -217 -225 -216 -176 -210 -195 -164 -135 -137 -116 -98 -41 -57 62 38 131 105 134 35 -36 -112 -112 -190 -157 -196 -154 -190 -188 -181 -152 -178 -136 -191 -149 -185 -144 -154 -146 -163 -143 -145 -130 -169 -140 -162 -169 -161 -153 -162 -109 -150 -143 -167 -141 -151 -150 -136 -140 -144 -117 -131 -57 -46 10 44 32 20 -52 -101 -100 -132 -122 -177 -87 -180 -124 -156 614 1002 224 -14 -35 -124 -99 -146 -123 -145 -116 -137 -89 -104 -83 -105 -46 -69 -5 -6 69 100 175 186 196 159 77 -16 -46 -102 -114 -133 -121 -139 -109 -162 -142 -123 -124 -133 -132 -116 -109 -133 -114 -127 -134 -112 -112 -136 -118 -147 -130 -151 -134 -159 -151 -157 -139 -155 -161 -179 -166 -176 -159 -172 -150 -167 -145 -78 -61 -20 39 0 -11 -44 -108 -146 -115 -198 -106 -214 -136 -269 -43 1018 762 117 -79 -153 -129 -165 -99 -121 -89 -103 -97 -91 -94 -62 -52 -41 7 29 73 91 160 199 253 258 162 96 16 -18 -57 -81 -92 -94 -122 -119 -74 -94 -82 -85 -68 -86 -84 -80 -102 -60 -75 -92 -70 -79 -66 -79 -93 -70 -70 -70 -68 -80 -69 -77 -47 -67 -80 -26 -35 -42 -44 -6 44 50 123 107 79 26 -14 -24 -44 -82 -50 -124 -76 -132 -211 524 1095 425 -48 7 -93 -67 27 -100 -82 -60 -68 -51 -14 -30 10 0 30 40 51 134 187 198 249 269 236 192 75 28 -84 -81 -45 -67 -58 -47 -66 -69 -70 -113 -69 -60 -115 -56 -51 -69 -52 -61 -43 -66 -44 -52 -83 -74 -93 -40 -25 -30 -53 -53 -35 -56 -17 -44 -66 -4 24 39 108 137 107 91 13 -26 -69 -62 -86 -74 -96 -90 -188 75 1081 829 75 43 -59 -77 -76 -56 -162 -67 -51 -75 -23 -49 -39 -29 -30 -9 37 52 109 171 160 152 194 187 99 14 -89 -67 -103 -102 -77 -100 -104 -112 -106 -98 -102 -95 -92 -113 -100 -90 -101 -94 -118 -171 -106 -88 -157 -121 -92 -113 -95 -143 -69 -94 -184 -131 -20 -31 13 61 81 11 -10 -83 -146 -131 -130 -117 -151 -182 -238 -141 792 879 203 -42 -132 -89 -149 -162 -215 -87 -107 -122 -88 -108 -83 -52 -63 -96 -10 30 41 91 128 135 180 146 10 27 -33 -47 -60 -130 -151 -118 -110 -109 -92 -110 -104 -88 -75 -94 -173 -118 -73 -109 -83 -95 -83 -97 -73 -116 -126 -106 -66 -95 -83 -36 -3 42 122 86 14 0 -26 -75 -77 -87 -79 -141 -130 -213 -119 718 989 215 -38 1 -102 -64 -112 -56 -131 -69 -66 -63 -44 -12 -25 23 29 73 34 116 133 194 225 216 200 138 52 8 -89 -37 -66 -39 -61 -55 -71 -59 -55 -37 -57 -48 -53 -37 -64 -42 -35 -50 -47 -46 -86 -26 -66 -53 -44 -73 -68 -50 -35 32 24 118 96 71 19 -20 -97 -96 -111 -97 -116 -97 -173 -159 455 828 411 91 -21 -15 -128 -83 -137 -64 -113 -91 -73 -56 -60 -31 -46 3 15 65 53 135 166 200 216 200 133 52 -47 -31 -77 -63 -91 -74 -98 -75 -78 -58 -69 -65 -77 -72 -73 -35 -62 -78 -66 -61 -72 -67 -80 -51 -82 -83 -87 -73 -67 -67 -46 7 7 105 110 57 11 -21 -94 -99 -138 -112 -157 -100 -214 -118 238 609 563 170 -92 -17 -162 -98 -211 -101 -157 -124 -105 -101 -80 -76 -38 -15 -7 30 47 107 144 200 169 175 98 26 -61 -82 -101 -123 -129 -121 -135 -120 -127 -124 -105 -90 -128 -115 -88 -100 -142 -137 -132 -106 -112 -88 -134 -109 -129 -110 -137 -119 -127 -114 -140 -117 -116 -34 -30 51 53 70 13 -16 -97 -106 -150 -99 -138 -68 -173 -82 -48 350 830 237 -65 -4 -140 -100 -167 -135 -167 -110 -117 -79 -105 -54 -93 -34 -64 0 4 71 77 138 124 132 111 47 -61 -63 -141 -106 -149 -129 -163 -136 -148 -141 -120 -123 -137 -139 -137 -121 -148 -116 -103 -134 -143 -130 -112 -132 -127 -113 -138 -116 -145 -132 -124 -116 -130 -110 -150 -61 -69 -29 21 28 17 -20 -82 -117 -172 -124 -213 -97 -222 -127 -266 274 1074 292 -45 32 -162 -107 -157 -123 -197 -122 -153 -113 -128 -89 -92 -67 -73 -48 -17 35 45 98 135 139 128 59 15 -36 -98 -83 -112 -128 -141 -124 -119 -121 -115 -106 -133 -130 -107 -107 -97 -101 -144 -96 -89 -112 -121 -113 -98 -113 -125 -93 -111 -114 -130 -127 -85 -103 -102 -88 -120 -74 -91 -45 -3 46 91 68 54 -10 -62 -43 -114 -75 -119 -51 -128 -15 -199 398 1204 330 -15 80 -88 -58 -118 -61 -107 -70 -76 -69 -67 -22 -29 14 5 43 44 132 146 203 219 247 205 122 45 25 -56 -37 -89 -49 -87 -70 -84 -59 -70 -43 -67 -50 -68 -35 -57 -35 -52 -47 -59 -36 -79 -49 -63 -30 -44 -58 -49 -26 -62 -30 -52 -39 -55 -36 -54 -34 -64 -36 -54 -31 -54 -23 1 64 81 151 113 35 9 -4 -58 -34 -105 5 -113 17 -159 86 995 611 241 78 -47 21 -103 -6 -47 -21 -23 6 -5 11 9 43 25 68 109 146 170 212 257 288 256 212 148 78 32 -7 -48 -57 -45 -34 -43 -39 -90 -24 -42 -44 -26 -28 -24 -45 -66 -18 -42 -23 -40 -15 -35 -20 -38 -46 -49 -5 -31 -11 -22 -23 -26 -6 9 1 -23 -8 8 11 -5 8 28 77 80 139 162 120 61 8 5 -36 -72 4 -64 0 -138 -83 667 876 308 34 -19 -55 -98 -44 -54 -63 -43 -54 -64 -60 -10 -2 -11 60 47 87 111 157 213 222 279 229 158 101 41 0 -15 -9 -38 -36 -24 -51 -52 -28 -40 -12 -18 13 -40 -14 -7 -43 -5 15 -16 12 -34 -33 -20 -28 -4 -9 -13 7 -31 -1 -12 0 -10 -10 2 1 -18 71 67 141 181 88 125 61 -3 -1 -11 3 -48 -20 -44 -174 163 1112 844 126 76 -22 11 -14 -51 -2 15 -26 36 20 22 56 49 87 64 124 147 172 257 265 292 300 227 142 91 16 -1 -2 -14 -15 -31 -45 -8 -33 -60 -21 -16 -15 -6 -32 -36 -6 -14 -14 -25 -101 -12 -8 -12 -18 -86 -8 -25 -17 -21 -99 -30 -55 -29 -11 -49 -31 -42 -29 -80 -53 44 5 119 152 97 36 -13 -56 -87 -47 -117 -112 -154 -138 -239 413 1178 546 -4 -85 -104 -95 -116 -104 -70 -77 -68 -76 -79 -123 -49 -41 -17 38 54 78 130 195 221 239 218 152 62 -80 -58 -74 -131 -74 -99 -210 -122 -79 -96 -102 -108 -81 -93 -113 -107 -119 -106 -102 -98 -102 -115 -87 -124 -111 -92 -100 -86 -107 -119 -88 -95 -103 -107 -95 -91 -82 -98 -84 -77 -89 -46 -13 -18 104 109 -4 18 7 -45 -66 -137 -128 -85 -165 -144 -226 276 1205 496 -9 -3 -142 -104 -103 -91 -180 -102 -74 -111 -63 -78 -30 -38 13 -18 -25 43 103 160 244 228 240 152 63 -9 -47 -66 -85 -77 -119 -100 -100 -153 -86 -94 -74 -67 -93 -83 -73 -58 -106 -102 -75 -78 -78 -87 -118 -70 -69 -75 -83 -83 -99 -50 -68 -86 -86 -57 -92 -119 -94 -52 -53 -43 -52 20 90 97 47 29 -10 -54 -90 -52 -177 -73 -141 -161 -281 263 1093 485 8 -25 -141 -49 -163 -57 -130 -98 -114 -105 -79 -59 -66 -31 -46 6 -8 69 91 113 182 204 128 147 52 4 -63 -105 -132 -94 -130 -112 -170 -97 -118 -112 -179 -124 -113 -112 -113 -106 -108 -111 -124 -127 -151 -95 -130 -145 -129 -114 -136 -109 -138 -129 -122 -128 -147 -113 -126 -111 -104 -50 -53 21 26 19 -4 -54 -93 -104 -142 -105 -144 -132 -171 -181 2 608 694 96 -108 -100 -181 -140 -210 -165 -212 -157 -158 -135 -152 -127 -126 -109 -95 -44 -37 21 43 87 104 111 55 -21 -117 -151 -210 -206 -236 -237 -256 -224 -235 -223 -236 -222 -245 -215 -240 -221 -241 -219 -222 -218 -238 -229 -232 -228 -254 -223 -228 -220 -256 -228 -241 -209 -243 -212 -228 -212 -208 -192 -208 -137 -138 -88 -42 -58 -87 -118 -183 -189 -252 -199 -219 -170 -265 -223 -176 332 896 179 -125 -72 -215 -145 -193 -198 -211 -163 -177 -142 -140 -129 -122 -80 -77 -17 -2 65 83 140 136 165 122 32 -50 -73 -154 -118 
