ADC Sampling rate (Hz):
100
Fragment duration (sec):
21
Number of samples exported by each lead:
2099

#I[uV]
1919 1810 1394 1542 1001 1220 582 799 197 424 -225 -202 -198 -152 -170 -139 -128 -92 -47 -36 48 -5 -19 -161 -159 -201 -216 -194 -218 -203 -244 -228 -218 -227 -201 -200 -225 -234 -206 -209 -192 -214 -212 -159 -178 -163 -171 -149 -88 -95 -96 -94 -155 -144 -151 -137 -101 -129 -78 112 211 63 -100 -66 -23 -63 -57 -57 -39 -17 -9 -6 23 26 21 52 95 119 182 258 272 295 265 232 168 95 57 54 34 27 51 47 33 30 29 51 41 43 62 63 50 78 71 61 67 72 72 86 93 86 133 134 126 122 76 73 78 67 105 87 189 329 350 350 136 142 189 117 144 134 129 145 142 162 165 188 219 241 261 312 351 391 433 448 453 422 348 305 257 241 232 226 235 258 223 227 234 224 252 260 223 252 239 217 243 255 247 228 251 229 214 230 234 236 259 242 243 253 240 254 204 217 204 192 209 188 229 256 337 325 204 210 167 184 139 159 163 162 160 158 156 152 178 160 214 187 260 281 272 326 252 335 232 231 229 154 159 127 168 153 148 153 140 136 129 127 148 142 121 109 127 123 111 120 127 114 95 121 99 98 103 95 83 108 86 76 84 84 82 86 57 86 78 99 80 56 58 27 37 6 31 -29 63 201 108 167 125 18 20 -35 -15 -28 -25 -36 -21 -22 -32 -2 -1 10 42 42 101 131 152 188 197 194 154 95 40 -3 -13 -29 -62 -55 -48 -60 -58 -64 -84 -70 -53 -68 -73 -61 -78 -75 -88 -76 -86 -87 -82 -83 -88 -81 -85 -75 -76 -77 -68 -67 -84 -71 -69 -68 -57 -55 -81 -59 -52 -32 -3 -7 0 -4 -45 -76 -87 -80 -95 -67 -121 -37 207 223 82 -37 -93 -86 -145 -97 -140 -119 -132 -131 -102 -95 -109 -83 -55 -52 0 42 69 110 139 160 135 81 -14 -66 -91 -103 -107 -116 -122 -129 -115 -128 -133 -108 -123 -107 -106 -124 -94 -94 -96 -103 -112 -110 -102 -96 -95 -102 -104 -67 -90 -112 -105 -101 -94 -88 -85 -81 -82 -57 -54 -49 -43 -37 -68 -86 -68 -77 -83 -81 -115 -44 114 195 131 -105 -107 -62 -110 -82 -97 -107 -92 -130 -202 -182 -185 -171 -153 -139 -89 -36 16 38 90 84 58 -18 -100 -149 -184 -196 -231 -238 -236 -247 -230 -211 -215 -209 -207 -203 -213 -197 -209 -211 -183 -194 -228 -193 -198 -209 -201 -185 -170 -163 -169 -130 -118 -123 -128 -156 -177 -183 -167 -178 -140 -142 -63 90 45 -114 -208 -153 -140 -137 -149 -144 -113 -125 -98 -79 -54 -30 -26 29 81 81 132 192 221 235 233 139 59 4 -43 -33 -56 -64 -74 -87 -78 -88 -63 -70 -53 -42 -57 -58 -58 -44 -54 -38 -40 -32 -11 -24 5 20 26 17 -46 -42 -41 -40 -61 -53 -41 70 267 199 40 -102 -45 -34 -47 -42 -43 -56 -32 -20 -26 -17 1 10 31 75 96 137 207 236 254 226 168 92 21 21 -8 -30 -22 -24 -21 -38 -18 -18 -19 -8 -10 -8 4 4 0 -1 29 27 0 11 15 30 43 30 56 80 73 75 43 20 20 24 2 30 0 113 303 334 225 37 9 32 -5 22 18 25 44 43 54 45 61 67 95 123 151 197 210 244 257 241 199 126 74 45 36 9 7 7 2 0 23 19 41 34 33 44 40 42 49 65 43 50 77 56 75 72 97 90 84 99 119 135 146 133 125 114 81 93 81 109 89 168 402 456 416 142 84 111 75 127 97 116 113 140 129 129 151 161 183 199 223 265 312 360 391 386 353 311 212 191 159 119 138 146 119 133 131 119 125 127 133 129 123 114 127 122 133 133 118 129 123 128 129 129 130 135 113 114 123 120 126 146 172 188 141 112 112 95 101 98 66 117 294 384 406 177 68 103 71 74 62 92 69 78 94 78 106 97 111 118 164 199 227 282 325 342 300 248 180 120 82 58 53 64 46 46 41 57 52 24 41 58 30 44 32 33 28 63 53 49 47 45 41 44 57 72 57 64 88 73 73 82 96 130 117 76 60 58 77 33 64 23 118 306 326 219 36 53 63 40 57 25 78 23 45 45 65 69 64 96 131 178 206 241 274 295 309 247 158 76 47 -1 -5 -33 -48 -41 -64 -41 -51 -47 -49 -61 -54 -50 -63 -55 -59 -68 -93 -94 -96 -84 -71 -96 -82 -81 -58 -47 -46 -61 -87 -100 -122 -117 -124 -99 -94 4 105 61 -76 -193 -116 -120 -150 -139 -116 -118 -137 -106 -116 -98 -88 -67 -54 -19 26 80 116 126 152 134 110 -37 -66 -116 -139 -130 -147 -137 -141 -143 -153 -151 -138 -161 -141 -130 -144 -131 -131 -146 -141 -133 -132 -125 -112 -94 -72 -82 -83 -129 -125 -119 -126 -151 -126 -148 -52 114 102 -53 -152 -121 -130 -148 -130 -152 -122 -122 -130 -133 -98 -100 -75 -60 -32 23 72 106 135 169 148 59 -17 -65 -87 -95 -99 -92 -111 -87 -84 -110 -91 -78 -94 -94 -76 -65 -70 -57 -61 -61 -66 -55 -44 -56 -53 -9 2 -11 18 45 42 22 -24 3 -30 -17 -39 -14 -35 75 295 297 120 -15 7 9 -25 1 25 -5 15 30 37 41 59 64 87 108 133 193 239 267 288 286 256 186 137 88 78 73 65 75 70 69 81 67 69 67 76 67 81 78 97 76 76 98 94 99 100 83 98 86 83 86 107 105 111 119 146 119 80 45 43 61 39 52 62 226 396 300 207 88 57 56 64 53 59 68 78 67 78 58 73 87 109 139 183 246 267 298 309 309 264 177 141 97 64 53 67 57 57 42 28 42 65 53 44 54 57 44 54 58 60 51 53 40 46 50 46 46 44 57 56 30 43 41 55 63 67 83 106 105 131 101 50 44 43 81 36 83 32 217 401 159 181 119 31 46 3 35 18 15 13 14 28 34 57 43 64 88 113 159 191 230 247 223 200 156 101 38 -19 0 -16 -38 -33 -31 -30 -19 -57 -61 -53 -74 -72 -64 -51 -54 -53 -56 -68 -101 -81 -81 -92 -87 -80 -85 -84 -110 -97 -120 -101 -96 -87 -99 -74 -74 -58 -98 -108 -110 -120 -124 -131 -96 -100 23 234 44 -21 -147 -137 -142 -178 -175 -189 -168 -173 -197 -180 -148 -157 -147 -145 -136 -81 -13 20 61 71 52 20 -37 -120 -192 -218 -220 -246 -234 -243 -238 -273 -263 -260 -281 -274 -275 -286 -281 -288 -301 -291 -293 -283 -289 -318 -309 -320 -302 -290 -312 -296 -280 -286 -251 -250 -298 -302 -323 -326 -341 -333 -310 -253 -132 -105 -208 -367 -337 -287 -328 -312 -341 -304 -319 -335 -343 -349 -326 -294 -284 -256 -230 -184 -118 -77 -73 -70 -115 -180 -255 -337 -349 -364 -375 -388 -404 -397 -408 -390 -413 -393 -366 -384 -408 -395 -392 -398 -390 -387 -381 -383 -412 -386 -406 -379 -347 -341 -345 -372 -393 -407 -396 -444 -388 -384 -318 -161 -144 -273 -413 -411 -375 -392 -352 -369 -385 -383 -348 -354 -354 -344 -329 -286 -310 -270 -221 -172 -110 -118 -103 -200 -222 -305 -324 -307 -351 -344 -333 -326 -352 -322 -311 -320 -327 -315 -335 -343 -310 -318 -322 -298 -317 -287 -315 -312 -314 -284 -299 -297 -327 -311 -263 -316 -273 -288 -277 -243 -301 -234 -305 -229 -288 -161 -8 -22 -36 -306 -277 -187 -273 -217 -287 -228 -254 -234 -245 -215 -232 -198 -212 -168 -148 -111 -47 -39 4 17 26 -52 -106 -136 -142 -143 -144 -143 -137 -123 -133 -112 -123 -118 -111 -115 -101 -106 -97 -70 -75 -76 -69 -59 -70 -66 -57 -58 -46 -40 -29 -31 0 11 20 26 31 50 -5 -20 -21 13 -28 -6 -6 126 340 372 197 33 25 7 11 29 35 39 41 55 63 76 72 102 128 142 168 231 307 315 375 363 307 276 220 178 169 170 163 160 139 151 155 166 165 164 163 161 161 175 181 191 182 186 178 194 184 190 197 214 205 193 200 217 242 223 223 230 244 272 256 283 264 211 205 181 229 186 277 182 436 544 186 415 331 195 265 172 222 225 216 208 230 239 245 250 263 287 294 331 375 445 494 505 498 487 432 350 305 266 239 245 230 239 231 233 212 202 202 221 199 198 204 217 209 202 210 194 204 212 219 228 233 231 214 216 230 229 224 229 263 249 274 260 217 203 198 221 171 196 242 321 391 460 272 146 193 162 177 131 145 171 126 176 171 149 164 163 186 215 244 287 337 376 381 385 302 238 184 124 92 95 95 71 60 72 35 32 50 50 47 28 26 22 15 28 3 3 -1 0 -7 17 25 -4 53 54 52 35 13 7 -4 -19 -33 -21 -21 47 205 175 61 -79 -58 -53 -46 -24 -39 -40 -25 -5 -31 -32 -22 0 29 72 77 120 170 200 247 235 185 106 14 -36 -40 -50 -78 -75 -68 -82 -91 -78 -82 -83 -78 -85 -68 -51 -56 -78 -49 -60 -67 -45 -48 -46 -37 -11 -2 -8 -30 -67 -69 -58 -55 -41 -69 24 173 217 149 -91 -63 -20 -74 -57 -59 -28 -45 -31 -29 -2 -7 17 31 53 82 137 199 223 256 259 226 148 95 61 25 8 -7 -20 5 16 9 -5 7 19 27 -2 -2 13 0 8 18 -2 -7 6 -15 -4 1 16 36 38 35 69 76 62 78 25 37 25 26 6 57 16 152 311 194 228 107 23 51 20 51 24 50 46 42 56 68 72 98 106 119 150 197 244 282 316 304 297 244 174 153 115 112 100 100 99 81 107 88 94 84 90 91 95 87 63 58 43 39 45 54 80 69 82 95 86 81 88 89 108 87 116 131 144 146 171 147 97 107 97 85 80 101 102 354 430 166 157 88 100 80 98 61 97 87 107 106 80 108 103 124 144 195 211 282 303 345 395 350 341 258 219 171 155 182 166 147 149 155 156 139 151 164 149 149 158 163 150 145 161 136 151 159 166 167 169 180 199 193 199 226 216 215 229 226 250 231 233 244 272 266 293 290 230 236 215 236 196 264 193 433 561 308 353 214 173 189 183 192 189 204 201 206 204 218 216 235 246 283 303 347 393 430 463 459 457 373 303 242 242 222 223 194 207 225 189 306 330 311 343 320 303 308 314 298 324 308 314 300 307 283 285 286 290 278 283 285 272 266 268 276 255 265 299 300 297 293 283 228 228 245 209 191 214 201 348 459 418 235 139 179 167 150 148 170 159 156 144 156 161 162 191 175 214 247 305 352 402 387 377 358 262 178 131 87 83 57 49 37 42 45 31 28 49 38 44 26 43 25 18 33 33 
#II[uV]
-6528 -7917 -6054 -6817 -4970 -5622 -3762 -4426 -2554 -3206 -1365 -1312 -1304 -1292 -1312 -1238 -1199 -1168 -1110 -1086 -975 -1047 -1017 -1159 -1237 -1283 -1250 -1297 -1301 -1297 -1303 -1302 -1309 -1288 -1272 -1291 -1311 -1281 -1269 -1269 -1250 -1251 -1205 -1202 -1204 -1164 -1125 -1096 -967 -990 -1023 -1080 -1132 -1147 -1167 -1121 -1146 -1100 -1128 -782 58 -287 -852 -997 -1021 -1016 -1074 -1017 -1015 -992 -944 -936 -920 -897 -871 -812 -748 -679 -592 -534 -447 -387 -404 -416 -498 -580 -589 -628 -662 -635 -620 -612 -584 -559 -552 -548 -519 -486 -464 -440 -411 -430 -396 -366 -388 -346 -309 -293 -210 -167 -32 -74 -84 -134 -197 -186 -214 -205 -170 -163 -106 133 992 791 115 15 3 -38 -62 -22 -2 -9 31 75 112 147 211 255 307 366 451 530 641 672 707 661 573 517 440 402 419 428 437 462 439 479 518 513 527 549 563 600 606 596 619 651 618 662 686 674 695 711 725 784 821 862 959 965 923 912 838 782 798 711 813 718 858 736 1197 1954 1174 898 850 772 805 754 806 768 831 827 850 852 898 911 988 1010 1116 1135 1180 1274 1197 1270 1151 1123 1076 1000 999 914 986 938 950 974 963 993 992 961 999 994 990 978 1026 967 982 983 997 941 970 960 930 970 961 929 948 942 935 892 958 923 970 1000 1000 1028 1077 1073 1016 963 911 850 883 823 902 761 939 845 1351 1919 1205 853 833 710 686 692 692 656 702 704 720 745 772 772 867 875 942 1002 1025 1106 1102 1099 1018 959 863 766 743 718 708 661 719 690 698 698 673 686 701 660 652 666 695 673 682 671 673 647 664 650 643 641 689 658 683 659 682 681 646 667 679 644 666 665 659 712 781 789 846 870 849 774 717 634 601 574 638 516 595 492 836 1763 1373 733 582 508 507 459 483 515 501 528 580 567 583 583 650 655 756 798 849 921 964 966 968 877 763 705 643 597 583 557 578 540 562 580 579 590 602 589 603 588 608 593 596 568 542 582 573 533 545 560 568 596 560 546 559 584 574 562 556 558 627 616 687 734 712 686 582 508 530 442 505 406 414 362 573 1474 1342 596 431 393 339 327 337 323 385 345 359 389 376 376 433 423 484 547 634 709 754 749 733 625 500 425 321 253 229 194 176 130 186 169 137 129 142 152 126 111 109 65 78 49 34 23 -12 -20 -38 -51 -6 -6 30 83 108 75 -32 -97 -171 -224 -222 -211 -275 -274 -274 327 855 203 -259 -318 -372 -373 -424 -413 -447 -463 -405 -393 -410 -388 -380 -327 -306 -255 -213 -141 -73 -134 -85 -165 -274 -346 -427 -441 -496 -504 -531 -562 -525 -531 -558 -541 -529 -523 -556 -547 -532 -545 -526 -545 -579 -560 -510 -436 -370 -351 -419 -458 -531 -566 -595 -651 -594 -645 -654 -630 22 487 -190 -542 -623 -694 -675 -690 -690 -679 -643 -649 -651 -620 -584 -554 -503 -481 -416 -360 -306 -228 -200 -203 -263 -364 -453 -497 -561 -575 -529 -547 -570 -547 -532 -522 -526 -515 -514 -498 -485 -489 -477 -517 -461 -450 -492 -459 -468 -418 -358 -341 -271 -221 -253 -324 -378 -411 -413 -469 -469 -478 -465 -433 56 872 264 -339 -393 -429 -431 -473 -420 -440 -429 -401 -358 -347 -354 -319 -254 -200 -170 -52 24 98 135 146 95 -30 -87 -157 -197 -215 -228 -224 -230 -228 -186 -180 -160 -165 -164 -143 -134 -133 -155 -144 -146 -132 -79 -105 -129 -24 0 27 80 115 195 216 196 139 65 6 5 -22 -24 -52 -17 -41 410 1345 918 147 48 -2 -11 -4 10 23 7 72 48 112 124 101 205 245 311 366 433 550 580 590 547 469 323 281 228 216 217 200 213 215 223 235 217 229 263 256 261 260 233 253 273 276 271 289 278 304 285 285 280 316 293 357 417 429 524 559 570 523 416 372 349 312 339 290 253 227 414 1409 1560 646 350 360 296 317 334 348 334 363 383 381 425 448 455 516 588 662 700 814 864 857 882 807 687 622 548 501 492 502 468 494 515 519 505 517 534 547 515 537 484 500 513 513 521 519 496 493 486 484 474 492 508 512 547 589 589 666 711 691 601 534 441 442 392 378 354 347 327 747 1593 1150 481 408 299 342 267 291 302 248 296 296 297 308 321 344 365 430 505 539 590 631 602 572 487 367 319 222 206 159 108 133 83 107 127 127 109 82 34 67 73 60 45 2 -28 -12 -42 -93 -58 -77 -3 64 38 93 11 -72 -126 -186 -211 -251 -269 -284 -256 -263 373 803 148 -245 -340 -377 -364 -416 -439 -400 -407 -461 -452 -413 -362 -348 -388 -319 -266 -201 -164 -123 -97 -141 -201 -336 -378 -443 -466 -530 -535 -517 -575 -566 -557 -596 -583 -607 -592 -564 -660 -653 -628 -695 -663 -650 -663 -624 -575 -534 -493 -588 -612 -702 -748 -739 -802 -784 -814 -841 -824 -216 314 -287 -747 -817 -865 -866 -867 -905 -896 -855 -876 -846 -843 -831 -796 -747 -740 -658 -604 -508 -510 -422 -453 -531 -624 -669 -742 -782 -786 -796 -783 -772 -780 -771 -781 -763 -765 -743 -737 -735 -724 -698 -720 -713 -705 -692 -692 -708 -711 -626 -574 -519 -465 -446 -447 -535 -641 -626 -642 -680 -622 -691 -645 -630 -2 595 -106 -546 -584 -607 -612 -602 -550 -580 -551 -510 -535 -460 -458 -413 -342 -283 -263 -140 -27 29 52 64 -1 -63 -140 -232 -263 -257 -245 -259 -287 -204 -214 -203 -176 -180 -177 -128 -113 -101 -123 -85 -85 -88 -107 -75 -79 -44 -44 -45 -32 53 79 153 158 201 157 120 33 -3 10 0 9 -9 34 103 824 1243 494 170 129 72 62 63 65 102 114 127 150 187 203 266 282 375 422 518 583 660 673 698 626 539 446 402 338 350 347 362 349 381 333 390 424 447 404 429 424 454 449 411 439 457 425 473 410 475 447 447 460 486 479 458 495 517 529 625 640 719 749 717 726 674 577 579 514 582 546 590 496 658 1315 1321 1072 791 567 591 491 544 470 485 488 541 544 535 587 612 646 702 730 837 900 961 1010 974 926 862 725 699 596 583 553 532 542 577 529 579 561 548 543 554 537 535 521 522 500 534 499 453 472 451 452 460 453 468 441 455 442 430 449 521 522 585 599 598 579 497 435 390 339 359 350 394 303 431 1145 1137 814 523 331 324 239 236 194 211 195 230 259 271 275 299 283 353 396 464 528 593 636 610 562 504 365 293 219 228 180 141 169 149 124 137 161 159 113 122 120 104 84 73 70 49 41 24 21 9 -11 32 56 58 69 139 168 140 65 3 -27 -74 -172 -137 -176 -154 -217 95 866 568 -47 -151 -238 -282 -340 -279 -293 -326 -351 -304 -343 -276 -272 -245 -246 -220 -165 -67 -19 -7 10 -34 -133 -220 -347 -359 -445 -446 -505 -529 -518 -551 -540 -522 -550 -533 -565 -587 -627 -643 -656 -649 -692 -694 -679 -738 -713 -644 -585 -576 -658 -659 -778 -844 -873 -912 -925 -951 -934 -977 -524 184 -402 -905 -1021 -1074 -1094 -1094 -1111 -1138 -1153 -1119 -1147 -1136 -1137 -1111 -1104 -1074 -1049 -1000 -932 -869 -889 -831 -959 -981 -1125 -1167 -1189 -1216 -1219 -1201 -1271 -1256 -1288 -1267 -1287 -1279 -1306 -1274 -1312 -1296 -1329 -1318 -1340 -1331 -1352 -1324 -1372 -1360 -1360 -1372 -1318 -1301 -1307 -1207 -1285 -1210 -1318 -1313 -1353 -1425 -1355 -1419 -1361 -1420 -1365 -1015 -329 -546 -1372 -1341 -1365 -1443 -1369 -1423 -1372 -1390 -1364 -1360 -1334 -1334 -1297 -1297 -1248 -1190 -1114 -1059 -1016 -928 -894 -893 -1015 -1048 -1134 -1162 -1164 -1166 -1181 -1154 -1145 -1129 -1127 -1116 -1105 -1065 -1087 -1063 -1061 -1037 -1042 -1017 -1006 -1031 -1016 -989 -1012 -967 -974 -954 -926 -921 -865 -748 -729 -668 -648 -691 -736 -780 -857 -820 -822 -775 -857 -771 -767 -27 614 -152 -647 -632 -717 -687 -697 -669 -695 -633 -619 -577 -531 -528 -501 -438 -379 -297 -200 -112 -82 26 38 -3 -53 -149 -188 -210 -235 -240 -241 -201 -152 -165 -181 -152 -121 -112 -127 -89 -60 -57 -76 -37 -64 -49 -50 -16 -5 -10 18 37 57 70 47 102 105 194 217 306 343 360 349 290 212 154 164 169 144 239 135 331 877 1053 825 459 290 277 181 209 203 234 276 298 271 321 341 378 428 477 503 584 675 794 801 854 773 750 633 584 529 491 474 458 453 476 458 472 446 496 447 467 485 459 466 488 439 439 428 439 444 433 415 437 448 450 431 471 490 541 589 670 671 607 572 453 427 409 372 390 357 410 349 1042 1612 819 421 384 349 277 280 298 267 304 288 332 294 351 365 366 413 477 520 600 677 690 692 628 543 440 320 306 258 259 214 194 241 229 164 220 198 200 182 217 198 153 180 138 132 142 122 139 145 215 219 291 348 263 227 158 91 103 38 60 -5 5 -27 577 1175 587 105 9 -103 -83 -64 -65 -101 -85 -42 -60 -46 -28 -6 24 52 90 138 210 281 340 328 290 203 118 54 -12 -23 -45 -41 -19 -50 -62 -64 -37 -15 -44 -41 -11 -34 -30 -20 -4 -30 17 -11 26 124 175 184 192 125 92 5 -13 -24 1 -26 9 -1 339 1121 794 119 85 2 21 -26 17 19 29 31 66 106 91 135 175 233 289 328 435 466 573 543 585 462 386 317 272 235 261 214 256 256 263 293 304 300 299 281 335 332 321 325 341 301 346 327 316 306 359 359 415 460 476 585 594 528 541 440 410 375 398 367 404 363 476 863 1321 1063 586 440 418 397 441 403 426 435 424 438 495 506 556 551 621 668 746 804 886 927 954 923 864 763 710 654 636 612 624 572 626 635 602 637 659 641 661 639 638 591 613 610 604 598 599 587 595 590 629 644 615 626 670 687 741 759 836 847 827 813 756 670 647 589 669 566 652 563 772 1596 1390 882 643 604 601 556 583 574 577 579 577 576 630 630 670 708 742 806 932 942 1015 1079 1039 990 934 855 758 733 727 686 702 685 694 709 682 680 700 688 698 687 690 616 656 646 615 627 633 617 626 625 625 627 638 615 654 640 626 635 645 669 716 734 786 842 815 769 722 616 598 554 566 499 575 477 575 1341 1562 1026 571 514 453 447 445 456 479 457 461 493 525 529 566 588 643 669 747 831 875 924 964 939 811 682 624 594 560 523 497 518 511 486 611 659 664 649 640 622 610 606 593 619 584 595 598 566 557 536 533 530 532 527 539 541 526 495 540 563 565 649 705 668 634 586 474 440 422 364 398 376 357 422 1179 1530 760 410 328 289 280 236 244 271 296 280 278 321 323 366 359 387 438 500 600 676 661 650 645 522 405 327 246 238 217 188 141 182 188 175 176 163 159 157 138 150 135 129 89 143 
#III[uV]
-8448 -9728 -7449 -8360 -5972 -6842 -4345 -5226 -2751 -3631 -1139 -1109 -1106 -1139 -1142 -1098 -1070 -1075 -1062 -1050 -1023 -1042 -997 -997 -1077 -1081 -1034 -1103 -1082 -1094 -1059 -1074 -1091 -1060 -1070 -1090 -1086 -1047 -1063 -1060 -1057 -1036 -992 -1043 -1026 -1000 -953 -947 -879 -894 -926 -986 -976 -1003 -1016 -983 -1044 -970 -1050 -894 -153 -350 -751 -931 -998 -952 -1017 -959 -976 -975 -934 -930 -944 -924 -892 -864 -843 -798 -774 -792 -719 -683 -670 -649 -667 -675 -647 -683 -697 -663 -672 -659 -618 -590 -582 -600 -560 -529 -527 -504 -461 -509 -468 -427 -456 -418 -381 -379 -304 -254 -165 -208 -210 -256 -273 -260 -293 -273 -276 -251 -296 -195 642 440 -20 -127 -185 -155 -207 -157 -132 -155 -111 -87 -53 -41 -7 13 46 53 99 139 207 224 254 239 224 212 183 161 186 202 201 203 216 252 284 289 275 288 339 348 367 378 376 396 371 434 434 445 481 480 491 547 562 620 716 711 682 658 633 564 593 519 604 529 628 480 859 1628 969 688 683 587 666 595 642 605 670 668 693 699 719 750 773 823 856 853 907 948 944 935 919 892 846 846 840 787 817 785 802 820 823 856 863 834 851 851 869 868 898 843 871 863 870 826 875 838 831 872 858 834 865 833 849 816 874 839 887 914 943 941 998 974 935 906 853 823 845 817 870 790 875 643 1242 1752 1080 834 813 745 702 720 718 692 724 726 752 748 774 762 825 833 841 870 873 917 905 905 863 863 822 769 757 748 770 716 767 751 756 763 758 757 754 729 726 727 774 748 771 748 760 734 747 734 732 723 774 734 760 737 750 748 730 738 748 713 724 721 741 771 833 822 850 877 848 778 762 711 689 654 734 584 717 529 629 1540 1291 771 676 594 652 557 624 634 633 659 683 663 693 667 705 707 756 756 780 811 825 806 832 796 777 771 734 701 691 674 701 670 677 709 713 699 725 696 710 713 703 687 692 671 654 693 676 630 641 663 672 663 650 659 665 686 668 650 641 640 710 674 742 784 755 724 651 595 598 520 589 487 530 407 459 1278 1211 701 538 456 449 410 435 430 478 476 561 572 562 548 587 563 573 583 618 671 664 665 675 644 600 574 506 449 461 433 413 377 417 381 352 339 349 356 339 308 319 277 262 244 263 216 185 189 162 134 163 156 200 213 227 199 95 59 5 -40 -55 -32 -135 -132 -211 236 809 317 -51 -164 -232 -235 -274 -268 -333 -338 -307 -313 -356 -357 -354 -356 -388 -337 -346 -334 -294 -370 -319 -305 -333 -351 -383 -408 -440 -440 -457 -474 -446 -442 -494 -470 -475 -481 -499 -488 -474 -500 -471 -506 -539 -528 -499 -412 -375 -371 -445 -476 -484 -524 -553 -610 -533 -591 -613 -701 -245 287 -231 -439 -577 -660 -627 -648 -647 -622 -610 -629 -624 -602 -586 -564 -535 -557 -512 -498 -513 -464 -454 -429 -432 -457 -474 -519 -553 -544 -507 -522 -549 -509 -513 -503 -507 -507 -504 -489 -490 -493 -477 -515 -490 -478 -492 -470 -483 -448 -401 -371 -328 -302 -327 -399 -421 -432 -433 -494 -472 -509 -466 -546 -247 538 38 -376 -403 -462 -425 -495 -438 -466 -473 -444 -413 -392 -416 -386 -349 -324 -321 -250 -186 -146 -121 -94 -103 -156 -161 -203 -233 -224 -235 -232 -232 -229 -210 -199 -201 -199 -198 -188 -175 -175 -204 -209 -190 -183 -156 -161 -204 -97 -97 -62 -3 15 75 80 49 5 -60 -107 -75 -115 -105 -161 -106 -210 7 889 502 5 -35 -114 -87 -132 -86 -93 -105 -67 -80 -16 -27 -59 21 45 87 101 120 190 188 204 194 157 111 89 68 97 78 54 93 82 91 115 91 101 129 127 138 146 106 130 139 143 153 160 155 176 156 156 149 181 179 242 294 308 398 413 397 335 274 260 236 217 238 191 186 109 120 1024 1153 469 282 257 225 242 271 256 265 284 289 303 318 351 343 398 424 462 472 532 539 514 581 558 507 502 465 443 438 438 422 447 473 462 452 492 492 489 485 492 452 467 485 450 468 469 448 448 444 439 416 419 450 447 458 516 516 583 615 561 484 458 381 384 314 345 289 323 208 441 1267 931 444 355 235 302 210 266 224 224 250 250 231 238 257 248 233 252 298 298 316 335 293 325 329 290 272 224 212 192 156 174 148 148 178 174 159 144 88 117 136 115 104 71 65 82 53 -9 13 18 79 146 96 141 58 -11 -38 -86 -89 -133 -145 -185 -162 -268 267 741 225 -51 -224 -257 -213 -276 -323 -282 -270 -355 -336 -315 -273 -281 -333 -300 -292 -282 -280 -249 -249 -276 -312 -298 -312 -327 -327 -400 -387 -379 -433 -423 -404 -444 -445 -446 -450 -433 -515 -522 -497 -549 -522 -517 -531 -499 -462 -440 -421 -506 -529 -573 -622 -619 -676 -632 -688 -693 -771 -331 211 -233 -594 -696 -734 -717 -736 -753 -773 -733 -746 -713 -745 -731 -720 -687 -707 -681 -677 -615 -646 -591 -601 -590 -606 -604 -654 -686 -686 -704 -671 -684 -696 -660 -689 -685 -671 -648 -660 -669 -654 -640 -659 -652 -638 -637 -648 -651 -658 -617 -576 -507 -483 -491 -490 -557 -617 -629 -611 -662 -582 -677 -609 -706 -297 298 -226 -531 -592 -616 -586 -603 -575 -575 -567 -541 -572 -501 -518 -478 -429 -392 -396 -333 -267 -238 -235 -222 -258 -249 -278 -320 -342 -330 -310 -334 -357 -274 -295 -271 -246 -247 -253 -195 -194 -179 -220 -161 -161 -187 -202 -174 -179 -128 -142 -131 -116 -32 -28 47 47 82 11 0 -46 -48 -32 -61 -29 -61 -28 -122 427 942 287 81 71 16 -1 10 6 34 35 59 71 128 130 179 172 235 239 272 315 362 363 388 361 361 304 305 274 297 279 304 291 338 305 347 359 394 359 375 367 409 394 353 378 406 372 432 364 424 401 400 416 429 422 428 451 475 474 562 573 635 642 612 595 573 526 534 471 500 510 506 463 440 914 1162 891 671 536 544 487 509 452 469 474 527 515 501 529 569 581 614 617 677 709 730 762 751 725 705 624 660 615 582 570 571 575 609 559 599 619 610 596 628 610 599 573 576 554 591 567 554 554 533 544 547 533 554 525 566 540 550 551 617 609 685 673 672 637 595 543 500 459 483 481 491 403 407 910 1093 835 670 469 467 417 411 384 379 369 427 440 419 433 447 429 490 477 477 508 532 564 557 541 541 486 485 437 449 427 375 413 387 398 400 421 441 388 398 406 386 373 375 361 342 325 314 340 318 309 334 347 371 366 419 455 391 316 301 274 248 154 203 156 155 36 227 971 777 320 186 48 45 -28 61 11 -6 -16 38 6 49 21 39 10 10 18 50 57 66 80 80 46 34 -10 -10 -80 -71 -117 -124 -120 -143 -149 -109 -157 -167 -180 -178 -231 -250 -257 -259 -305 -312 -296 -326 -326 -237 -205 -229 -317 -314 -405 -450 -466 -515 -481 -562 -549 -659 -362 328 -128 -491 -610 -699 -701 -742 -741 -752 -769 -770 -793 -781 -793 -782 -818 -763 -778 -779 -759 -759 -770 -727 -758 -758 -820 -842 -881 -864 -875 -867 -944 -904 -965 -956 -966 -952 -990 -938 -969 -985 -1010 -996 -1042 -1013 -1064 -1009 -1059 -1045 -1075 -1072 -1020 -973 -995 -943 -969 -936 -1030 -1036 -1110 -1123 -1120 -1113 -1132 -1132 -1204 -1007 -306 -509 -1065 -1063 -1178 -1169 -1152 -1136 -1143 -1136 -1130 -1114 -1119 -1102 -1099 -1084 -1079 -1041 -1003 -1012 -976 -932 -911 -920 -963 -942 -998 -1020 -1021 -1022 -1038 -1016 -1022 -996 -1015 -993 -986 -953 -971 -961 -954 -939 -972 -942 -929 -961 -956 -919 -946 -909 -916 -907 -885 -892 -834 -748 -740 -689 -675 -722 -786 -774 -836 -798 -835 -746 -850 -765 -893 -367 241 -350 -680 -658 -724 -699 -727 -705 -734 -675 -675 -640 -607 -601 -603 -567 -521 -466 -432 -420 -397 -348 -324 -311 -329 -369 -367 -380 -405 -403 -401 -340 -303 -320 -347 -317 -286 -276 -288 -251 -235 -239 -268 -220 -250 -227 -244 -200 -196 -207 -196 -168 -136 -130 -169 -140 -117 -28 -13 61 71 104 65 25 0 -51 -17 -59 -42 -37 -46 -105 333 867 410 128 94 11 9 -13 -21 18 67 68 32 76 90 115 141 182 172 208 230 299 295 356 285 318 283 279 263 252 228 227 213 245 225 259 244 293 225 267 286 254 249 278 237 229 234 234 231 213 187 203 216 235 214 240 260 317 360 406 422 332 312 236 224 210 151 219 160 167 28 651 1152 547 275 190 186 99 148 152 95 177 111 161 145 187 201 180 198 233 233 263 301 309 307 325 304 256 196 214 162 163 143 133 169 194 132 170 147 153 154 190 175 138 151 134 129 143 122 147 128 189 224 237 294 211 191 144 83 107 58 93 16 27 -75 372 1000 525 184 67 -49 -36 -39 -25 -60 -60 -36 -28 -14 -5 -6 -4 -20 12 18 39 81 93 93 105 96 103 91 27 26 33 33 49 32 29 13 44 68 34 43 56 17 25 58 44 29 85 33 74 171 213 195 194 134 123 73 55 34 57 15 79 -25 165 904 645 211 149 23 96 30 76 47 74 63 95 108 98 117 143 179 207 191 236 242 316 283 359 313 290 256 246 227 268 234 250 239 253 299 297 280 272 283 338 319 322 317 322 303 353 320 331 311 358 342 378 422 441 515 517 466 463 414 372 350 372 361 346 347 323 551 1126 835 479 417 367 377 390 378 375 388 382 382 427 433 458 444 501 517 549 560 603 610 649 626 619 588 556 539 523 511 523 472 544 528 513 543 574 551 570 543 550 528 554 566 564 553 544 507 526 508 533 558 534 537 581 578 653 642 704 703 681 642 609 573 540 491 583 485 550 461 418 1166 1223 724 555 503 521 457 522 476 489 472 471 495 521 526 545 563 547 594 650 638 669 683 688 649 675 635 586 577 545 520 555 536 539 552 542 529 536 538 549 528 527 466 511 485 479 476 474 450 459 456 445 427 445 415 428 423 411 406 419 418 485 500 542 570 549 475 431 386 362 338 330 302 310 283 141 779 1254 672 356 340 263 263 252 267 274 256 255 289 307 312 330 341 359 365 400 438 445 461 505 481 437 378 381 352 337 300 302 310 286 296 305 329 352 306 320 318 302 292 295 295 275 281 298 259 273 250 246 240 254 243 254 269 259 226 264 307 300 349 404 371 340 302 246 211 177 155 207 161 155 73 719 1111 525 271 148 121 129 87 73 111 139 135 121 160 161 174 183 172 190 194 248 273 273 273 287 259 227 196 158 154 159 139 103 140 143 143 148 113 120 113 112 106 109 110 55 110 
#avR[uV]
2304 3053 2329 2637 1984 2200 1590 1813 1178 1390 795 757 751 722 741 689 664 630 579 561 463 526 518 660 698 742 733 746 759 750 774 765 764 757 737 746 768 757 738 739 721 733 708 680 691 664 648 623 528 542 560 587 644 645 659 629 624 615 603 334 -134 112 476 532 522 539 566 537 527 504 477 471 448 435 424 380 326 280 205 137 87 46 69 91 165 242 266 287 314 304 284 282 275 264 261 248 238 221 200 188 180 175 162 152 160 136 118 103 58 40 -50 -29 -21 5 60 56 68 69 32 38 -41 -231 -671 -571 -125 -79 -96 -39 -41 -56 -63 -67 -86 -118 -138 -168 -215 -248 -284 -339 -401 -460 -537 -560 -580 -542 -460 -411 -349 -321 -325 -327 -336 -360 -331 -353 -376 -369 -390 -404 -393 -426 -422 -407 -431 -453 -432 -445 -468 -451 -455 -470 -480 -510 -540 -552 -601 -609 -582 -583 -521 -499 -501 -451 -511 -453 -543 -496 -767 -1139 -689 -554 -508 -478 -472 -456 -485 -465 -496 -493 -503 -502 -538 -535 -601 -599 -688 -708 -726 -800 -724 -803 -691 -677 -653 -577 -579 -521 -577 -546 -549 -564 -551 -564 -560 -544 -574 -568 -555 -543 -576 -545 -546 -552 -562 -528 -532 -541 -515 -534 -532 -512 -516 -525 -510 -484 -521 -503 -526 -543 -528 -557 -577 -586 -548 -509 -485 -438 -460 -415 -467 -365 -501 -523 -729 -1043 -665 -435 -426 -337 -335 -331 -333 -309 -340 -340 -343 -371 -385 -391 -455 -458 -522 -566 -588 -647 -650 -647 -586 -527 -451 -381 -364 -344 -322 -302 -335 -315 -320 -317 -294 -307 -324 -295 -289 -302 -308 -298 -296 -297 -293 -279 -290 -283 -277 -279 -302 -291 -303 -290 -307 -306 -281 -297 -305 -287 -304 -304 -288 -326 -364 -378 -421 -431 -425 -384 -335 -278 -257 -246 -271 -224 -236 -227 -522 -993 -728 -347 -244 -211 -180 -181 -171 -197 -184 -198 -238 -235 -237 -250 -297 -301 -378 -420 -459 -515 -552 -563 -552 -479 -374 -319 -276 -247 -237 -220 -227 -205 -223 -225 -223 -240 -239 -241 -248 -232 -257 -249 -249 -232 -215 -236 -235 -218 -224 -228 -232 -264 -235 -217 -227 -241 -240 -236 -235 -238 -272 -279 -316 -342 -334 -324 -256 -211 -230 -182 -210 -162 -149 -158 -344 -834 -737 -245 -161 -165 -114 -122 -119 -107 -146 -107 -78 -103 -95 -102 -140 -142 -197 -255 -325 -374 -422 -416 -395 -303 -199 -138 -68 -28 1 22 29 58 21 20 39 40 32 25 43 43 50 72 52 72 97 84 105 114 119 118 88 84 69 23 5 23 80 126 174 204 194 194 207 208 168 -208 -450 -44 233 235 256 255 287 278 280 294 251 236 232 209 203 148 112 86 40 -25 -73 -50 -73 12 107 171 235 237 276 284 303 325 301 310 311 305 291 282 306 302 295 294 290 292 310 296 260 230 182 165 196 220 289 304 318 346 327 349 348 280 -144 -343 74 322 334 364 361 366 366 367 338 335 338 319 291 271 236 202 159 111 49 -4 -27 -11 47 135 215 238 285 302 276 285 296 293 275 270 272 262 262 253 240 242 238 259 216 211 246 223 226 194 157 155 107 70 90 124 167 195 196 222 233 223 232 159 -179 -603 -244 150 191 198 218 225 200 207 192 178 151 150 146 125 79 38 9 -72 -117 -171 -196 -194 -147 -47 6 55 80 103 110 108 113 114 81 80 59 65 65 49 47 45 53 39 51 40 0 24 27 -23 -48 -58 -82 -107 -157 -176 -171 -136 -95 -60 -43 -35 -28 -28 -36 -63 -406 -900 -667 -145 -66 -54 -31 -61 -53 -70 -60 -106 -89 -120 -138 -131 -194 -222 -267 -315 -372 -455 -485 -488 -450 -390 -268 -236 -194 -167 -178 -173 -166 -174 -177 -177 -171 -178 -198 -192 -192 -187 -180 -187 -203 -205 -195 -209 -200 -216 -207 -207 -205 -226 -203 -236 -270 -274 -325 -353 -371 -356 -278 -242 -231 -204 -220 -194 -159 -172 -354 -897 -983 -412 -209 -231 -183 -196 -198 -220 -201 -221 -238 -229 -266 -273 -283 -317 -376 -430 -463 -548 -594 -600 -591 -527 -434 -371 -315 -279 -272 -283 -257 -270 -278 -288 -278 -270 -288 -302 -272 -291 -258 -267 -271 -288 -287 -284 -272 -269 -263 -264 -266 -282 -283 -288 -318 -331 -331 -374 -403 -410 -359 -305 -251 -250 -234 -206 -209 -185 -223 -526 -959 -684 -258 -231 -181 -191 -162 -158 -190 -135 -171 -171 -181 -188 -193 -220 -248 -304 -355 -390 -432 -463 -455 -410 -322 -221 -183 -110 -100 -63 -30 -46 -9 -32 -37 -39 -30 -10 10 -8 -5 -2 7 32 61 53 69 89 65 87 43 8 10 -23 17 66 106 143 167 184 197 191 175 129 -239 -432 -35 219 228 248 257 278 277 259 272 284 284 255 225 208 221 169 119 60 23 -1 -27 3 45 186 222 279 302 330 341 327 358 355 355 373 360 384 367 347 402 392 379 421 402 391 397 375 343 314 282 335 348 415 436 429 464 468 470 494 438 51 -208 170 450 469 498 507 498 528 509 488 503 489 470 465 435 403 386 317 266 201 187 126 152 235 320 367 415 438 443 444 447 429 432 441 436 421 429 419 406 400 397 378 390 387 385 374 368 382 382 317 286 265 223 200 202 256 332 311 336 349 330 352 340 277 -146 -446 -6 281 288 298 318 300 262 292 267 239 248 209 199 174 127 87 64 -26 -105 -148 -170 -175 -127 -61 1 72 92 91 90 91 108 67 66 67 53 56 50 30 16 11 12 4 4 -4 6 -12 -10 -19 -26 -20 -25 -69 -93 -129 -134 -160 -152 -120 -56 -20 -27 -30 -24 -21 -48 -164 -610 -771 -350 -129 -93 -64 -63 -58 -62 -85 -96 -97 -114 -122 -138 -177 -195 -257 -303 -382 -425 -479 -491 -503 -445 -358 -293 -249 -201 -201 -207 -210 -203 -212 -181 -216 -244 -250 -224 -242 -240 -249 -252 -235 -250 -254 -239 -257 -228 -263 -246 -247 -252 -272 -267 -244 -269 -279 -292 -344 -354 -401 -428 -411 -429 -387 -313 -311 -278 -332 -291 -337 -264 -437 -858 -740 -626 -455 -299 -318 -247 -289 -244 -250 -250 -278 -286 -285 -322 -327 -355 -395 -422 -498 -545 -596 -629 -599 -563 -509 -413 -369 -288 -292 -268 -247 -254 -273 -249 -279 -251 -243 -244 -239 -232 -235 -235 -234 -223 -238 -215 -175 -195 -184 -180 -186 -186 -191 -178 -172 -172 -155 -173 -212 -217 -242 -262 -262 -260 -199 -163 -139 -109 -117 -109 -148 -101 -227 -689 -590 -396 -187 -96 -91 -30 -30 -2 -21 -10 -16 -39 -61 -58 -75 -68 -108 -157 -225 -274 -327 -353 -331 -291 -233 -122 -50 0 -4 33 46 37 44 74 63 49 61 80 76 82 88 101 113 110 122 120 132 148 149 166 135 116 126 113 70 58 55 92 147 165 198 249 239 254 232 235 18 -380 -180 207 244 262 305 326 310 299 323 343 324 346 301 283 264 251 225 174 92 48 40 30 74 157 237 342 354 404 410 447 466 457 479 465 468 472 450 474 497 511 517 527 519 540 538 531 575 549 525 482 462 500 502 575 618 640 654 685 670 659 648 343 -19 338 659 716 724 743 723 740 761 768 733 751 745 740 720 695 692 660 610 552 490 504 467 580 602 715 746 748 783 782 767 799 804 805 789 804 803 811 804 828 803 823 820 819 824 820 820 842 837 822 835 808 814 809 735 801 741 803 795 798 863 794 862 795 854 763 511 175 291 839 809 776 858 793 855 800 822 799 803 775 783 747 754 708 669 612 553 527 461 438 433 534 577 635 652 653 655 662 645 634 631 620 619 611 588 601 582 583 567 556 546 541 550 537 529 539 512 516 500 483 475 448 374 358 323 310 330 343 393 438 420 404 402 431 388 320 -156 -493 -22 306 303 354 337 334 316 328 296 281 256 227 227 199 155 118 64 -15 -97 -116 -201 -201 -151 -111 -35 4 20 32 38 40 31 0 4 7 -6 -21 -25 -17 -35 -57 -61 -57 -72 -61 -64 -71 -83 -92 -93 -116 -121 -125 -135 -132 -172 -164 -209 -224 -275 -308 -308 -316 -277 -211 -180 -172 -199 -165 -258 -159 -384 -710 -619 -620 -395 -242 -271 -176 -215 -214 -225 -242 -264 -255 -283 -295 -320 -358 -386 -417 -479 -560 -644 -653 -676 -630 -591 -492 -444 -397 -365 -359 -344 -346 -353 -346 -342 -324 -349 -334 -333 -342 -332 -342 -349 -321 -325 -311 -322 -328 -326 -321 -335 -340 -332 -323 -351 -360 -383 -409 -466 -460 -440 -416 -335 -315 -303 -296 -280 -277 -326 -335 -717 -1036 -546 -284 -288 -255 -227 -205 -221 -219 -215 -232 -251 -222 -258 -264 -276 -314 -360 -403 -469 -526 -536 -539 -465 -391 -312 -222 -199 -176 -177 -143 -127 -157 -132 -98 -135 -124 -123 -105 -121 -110 -84 -104 -70 -67 -70 -61 -66 -81 -120 -107 -172 -201 -158 -131 -85 -49 -49 -9 -13 13 8 -10 -391 -675 -324 -12 24 78 64 44 52 71 55 24 45 39 25 3 -27 -62 -83 -129 -190 -241 -294 -282 -238 -154 -66 -9 26 37 62 58 44 66 76 71 60 49 61 63 39 43 43 49 26 45 25 28 11 -39 -68 -86 -95 -58 -30 30 41 41 27 34 30 -11 -256 -669 -472 -13 -10 8 26 41 21 4 8 0 -18 -51 -41 -76 -103 -143 -185 -233 -317 -345 -414 -401 -405 -305 -241 -189 -148 -121 -127 -97 -130 -136 -136 -144 -155 -160 -163 -139 -166 -172 -160 -166 -180 -149 -169 -166 -150 -151 -180 -187 -225 -249 -256 -327 -335 -295 -309 -232 -224 -200 -212 -187 -231 -189 -314 -587 -758 -646 -346 -231 -235 -208 -246 -213 -238 -240 -233 -247 -281 -289 -327 -328 -370 -409 -471 -524 -584 -622 -629 -610 -554 -469 -431 -385 -374 -356 -362 -335 -353 -371 -345 -365 -372 -365 -376 -367 -362 -327 -335 -326 -322 -321 -326 -333 -332 -336 -362 -365 -348 -357 -380 -397 -414 -438 -483 -496 -487 -492 -452 -384 -377 -343 -377 -323 -376 -332 -563 -1013 -778 -519 -366 -352 -340 -327 -322 -335 -332 -343 -342 -328 -369 -367 -397 -426 -468 -509 -607 -623 -680 -737 -694 -665 -596 -537 -465 -444 -455 -426 -425 -417 -425 -433 -411 -416 -432 -419 -423 -422 -427 -383 -401 -403 -375 -389 -396 -391 -397 -397 -402 -413 -415 -407 -440 -428 -420 -432 -436 -459 -474 -484 -515 -557 -541 -531 -506 -423 -417 -384 -401 -348 -420 -335 -504 -951 -935 -689 -392 -344 -321 -315 -319 -322 -342 -329 -334 -349 -371 -372 -400 -417 -463 -486 -547 -612 -652 -693 -711 -698 -592 -492 -433 -418 -391 -373 -345 -363 -368 -338 -458 -494 -488 -496 -480 -463 -459 -460 -446 -472 -446 -455 -449 -437 -420 -411 -409 -410 -405 -405 -412 -406 -396 -382 -408 -409 -415 -474 -502 -482 -463 -434 -351 -334 -333 -287 -295 -295 -279 -385 -819 -974 -497 -275 -253 -228 -215 -192 -207 -215 -226 -212 -217 -241 -243 -278 -267 -301 -342 -403 -476 -539 -524 -513 -501 -392 -292 -229 -167 -161 -137 -119 -89 -112 -117 -103 -102 -106 -99 -100 -82 -96 -80 -74 -61 -88 
#avL[uV]
5183 5769 4421 4951 3486 4031 2463 3012 1474 2028 456 453 454 493 485 479 470 491 507 506 536 518 488 418 459 440 408 454 432 445 407 423 436 416 434 444 430 406 428 425 432 410 389 442 423 418 391 398 395 399 414 445 410 429 432 423 471 420 486 503 182 206 325 432 487 444 479 451 468 478 462 461 484 475 457 458 469 458 478 525 495 489 467 441 417 385 352 368 365 345 362 353 325 310 306 325 300 286 295 283 255 294 270 244 261 245 226 232 199 170 149 171 168 189 174 166 185 170 190 169 243 262 -145 -44 78 135 187 136 175 146 131 150 127 124 109 114 113 113 107 129 125 125 113 111 99 91 61 46 36 39 22 12 17 27 3 -12 -24 -32 -11 -13 -57 -47 -64 -80 -66 -70 -62 -102 -91 -108 -133 -124 -128 -155 -151 -188 -236 -228 -220 -202 -214 -173 -194 -163 -197 -170 -199 -111 -261 -651 -382 -238 -258 -201 -263 -218 -239 -221 -254 -255 -268 -273 -270 -295 -279 -318 -297 -285 -317 -311 -346 -299 -343 -330 -308 -345 -340 -329 -324 -315 -326 -333 -341 -360 -367 -353 -351 -354 -374 -379 -385 -359 -379 -371 -371 -355 -390 -358 -365 -386 -377 -369 -390 -362 -381 -369 -395 -377 -402 -414 -443 -427 -460 -437 -427 -424 -397 -398 -404 -405 -419 -410 -406 -220 -567 -792 -477 -407 -396 -390 -358 -374 -371 -364 -373 -374 -392 -375 -388 -376 -391 -395 -369 -369 -360 -364 -353 -355 -354 -384 -391 -386 -385 -389 -416 -385 -407 -405 -407 -414 -421 -413 -403 -399 -399 -394 -426 -412 -430 -412 -423 -411 -415 -408 -410 -402 -429 -405 -418 -407 -409 -408 -407 -405 -409 -391 -390 -388 -411 -415 -442 -427 -427 -442 -423 -391 -404 -393 -388 -367 -414 -325 -419 -283 -210 -658 -604 -404 -384 -340 -398 -327 -382 -376 -383 -395 -393 -379 -401 -375 -380 -380 -377 -356 -355 -350 -342 -323 -348 -357 -395 -418 -412 -402 -399 -395 -412 -400 -396 -418 -423 -404 -424 -401 -408 -418 -398 -391 -394 -387 -383 -401 -389 -363 -368 -383 -388 -365 -370 -385 -385 -394 -381 -369 -363 -361 -396 -366 -398 -416 -399 -381 -360 -341 -333 -299 -336 -284 -322 -225 -172 -541 -539 -403 -322 -259 -280 -246 -266 -268 -285 -303 -382 -377 -373 -360 -370 -351 -331 -310 -301 -316 -287 -290 -308 -331 -350 -362 -345 -322 -346 -336 -325 -312 -323 -296 -283 -274 -278 -279 -276 -253 -264 -244 -222 -219 -245 -204 -191 -199 -181 -159 -166 -159 -184 -171 -173 -161 -111 -107 -91 -71 -55 -72 -2 -5 74 -72 -382 -215 -78 5 45 49 62 61 109 106 104 117 150 163 164 192 234 209 239 263 258 303 276 222 196 177 170 187 191 187 191 193 184 177 215 200 211 219 221 215 208 228 208 234 249 247 243 193 190 195 235 246 218 241 256 285 236 269 286 386 256 -43 136 168 266 313 289 302 302 283 288 304 299 292 293 287 283 316 304 318 360 350 354 328 300 275 248 270 272 256 242 248 263 235 247 242 244 249 247 240 247 248 238 256 260 252 245 241 249 239 222 201 192 191 200 237 232 226 226 259 237 270 233 330 275 -101 93 207 206 247 209 258 228 246 258 243 233 218 238 227 222 224 236 223 198 195 189 168 151 141 117 124 135 116 121 120 117 114 116 109 121 117 116 116 107 109 126 137 116 117 116 109 139 84 97 76 44 41 22 27 48 64 93 110 78 104 93 135 98 189 197 -216 -43 68 59 113 81 130 91 104 109 104 104 72 89 110 81 76 68 82 95 84 101 91 79 76 50 50 45 10 30 46 12 25 20 1 16 12 1 1 -7 -16 10 -4 -3 -5 -17 -15 -16 -23 -13 -13 -9 -22 -32 -63 -85 -93 -136 -133 -112 -73 -66 -74 -61 -60 -68 -46 -59 4 86 -319 -373 -146 -107 -76 -77 -83 -104 -82 -97 -102 -97 -112 -106 -127 -115 -140 -129 -131 -122 -125 -107 -86 -140 -155 -163 -190 -191 -192 -192 -187 -188 -200 -215 -202 -200 -234 -225 -215 -227 -224 -209 -216 -228 -193 -207 -209 -200 -201 -201 -197 -179 -173 -196 -191 -184 -221 -221 -250 -259 -215 -183 -190 -160 -162 -118 -156 -112 -150 -44 -67 -470 -356 -204 -150 -86 -130 -76 -120 -73 -100 -102 -102 -82 -84 -96 -76 -50 -36 -46 -28 -21 -19 7 -38 -85 -106 -112 -113 -108 -113 -102 -107 -106 -95 -115 -110 -104 -102 -71 -84 -99 -85 -82 -70 -79 -88 -75 -37 -42 -57 -81 -113 -77 -94 -52 -25 -24 -6 -16 8 10 43 34 136 -81 -339 -151 -71 54 68 31 68 103 82 66 124 110 108 92 106 139 140 159 181 198 187 200 205 211 130 123 105 94 135 120 120 146 139 125 146 153 142 154 151 185 195 182 201 190 192 199 186 175 173 174 211 222 222 248 249 275 240 281 272 359 222 -54 89 221 287 301 284 303 300 325 305 308 290 323 315 322 313 337 352 374 361 390 380 375 325 294 269 283 295 293 305 279 298 306 274 299 303 288 277 292 301 292 291 299 295 286 290 301 297 302 303 289 248 250 268 266 290 296 316 290 322 271 331 287 390 296 0 173 257 299 313 280 302 300 284 291 285 305 271 289 271 258 250 265 263 253 253 261 254 257 217 208 204 210 202 187 205 213 171 188 169 157 157 164 131 138 129 158 119 118 143 148 137 139 106 120 108 99 59 68 29 31 18 67 59 63 46 38 61 34 56 45 174 -15 -320 -40 3 -7 19 32 21 26 16 21 4 3 -35 -28 -45 -31 -48 -28 -13 -24 -31 -26 -39 -48 -92 -81 -104 -104 -122 -105 -123 -116 -147 -138 -152 -147 -170 -157 -160 -155 -182 -170 -147 -158 -177 -159 -195 -158 -186 -177 -176 -186 -185 -183 -199 -203 -216 -209 -249 -253 -276 -267 -253 -232 -236 -238 -245 -214 -209 -237 -211 -215 -111 -256 -501 -355 -275 -252 -249 -242 -236 -216 -226 -230 -256 -243 -233 -236 -263 -258 -262 -252 -258 -258 -249 -257 -263 -262 -274 -261 -311 -317 -290 -293 -304 -304 -320 -295 -309 -338 -336 -325 -351 -341 -332 -312 -315 -304 -324 -318 -328 -318 -307 -318 -317 -307 -319 -304 -338 -319 -335 -326 -357 -348 -392 -373 -373 -348 -346 -325 -305 -290 -303 -306 -293 -252 -192 -338 -524 -428 -408 -303 -305 -298 -293 -286 -274 -271 -312 -310 -283 -295 -297 -287 -313 -279 -245 -244 -235 -246 -252 -260 -289 -303 -338 -328 -335 -336 -304 -328 -312 -336 -332 -341 -361 -331 -337 -346 -334 -330 -338 -326 -317 -304 -301 -329 -313 -314 -318 -319 -341 -331 -349 -370 -321 -283 -299 -288 -285 -240 -272 -244 -232 -144 -179 -538 -492 -343 -262 -167 -187 -141 -201 -158 -156 -159 -191 -177 -188 -158 -161 -133 -120 -101 -84 -67 -70 -75 -97 -113 -145 -163 -169 -142 -152 -135 -140 -138 -132 -120 -151 -118 -99 -101 -114 -82 -70 -70 -65 -40 -34 -43 -42 -29 -84 -87 -59 -12 -15 16 28 29 59 18 86 82 170 100 -236 -72 39 99 162 154 194 186 183 193 210 219 213 224 226 265 226 254 279 293 324 326 312 278 267 257 258 286 256 265 267 308 276 321 322 322 312 337 301 312 337 345 337 371 347 388 346 373 365 395 386 361 323 341 339 326 331 371 379 433 410 443 404 451 422 521 499 141 236 379 393 495 448 467 424 457 441 448 434 451 434 450 436 455 446 446 482 468 468 464 473 455 417 430 439 438 439 447 439 449 431 451 435 434 420 427 429 424 421 451 433 426 446 448 424 439 426 429 430 422 431 401 374 376 355 350 376 418 384 408 388 424 359 422 379 510 353 65 274 357 342 366 355 378 370 387 358 365 351 342 336 352 347 332 317 332 363 356 362 344 309 302 294 273 275 288 283 280 240 227 238 256 241 225 219 225 206 205 210 229 201 218 202 219 192 193 202 205 187 165 165 193 191 170 126 122 91 100 76 109 119 105 128 99 144 114 157 114 271 105 -340 2 101 50 127 81 117 123 99 70 81 103 84 79 74 73 56 79 83 107 97 104 70 100 57 33 13 1 -6 8 1 12 -7 4 -23 -20 -45 -2 -34 -43 -25 -15 -34 -17 -9 -20 -15 -9 2 20 14 7 -10 0 -4 -15 -46 -65 -71 -86 -29 -26 -9 -10 -5 34 -24 18 37 146 -129 -345 -137 -64 1 -12 38 -8 -3 37 -25 32 4 2 -11 -18 3 8 5 26 36 37 36 39 -11 -32 -36 -35 -60 -33 -33 -35 -36 -48 -79 -49 -60 -48 -52 -62 -82 -76 -61 -61 -65 -63 -72 -60 -77 -55 -81 -114 -92 -119 -79 -77 -65 -37 -55 -38 -63 -19 -24 61 -83 -412 -232 -131 -63 -2 -5 7 -6 9 17 15 -1 -8 -8 3 17 46 32 51 65 59 77 71 40 4 -44 -63 -33 -38 -55 -54 -59 -57 -60 -45 -63 -76 -56 -64 -62 -34 -40 -68 -47 -44 -76 -39 -61 -108 -125 -103 -98 -71 -77 -70 -62 -46 -56 -28 -74 25 4 -343 -247 -151 -106 -21 -85 -43 -67 -38 -60 -47 -62 -55 -52 -50 -55 -63 -62 -26 -18 -9 -30 -11 -66 -82 -97 -97 -110 -109 -137 -127 -122 -111 -122 -152 -145 -130 -122 -143 -170 -153 -161 -154 -152 -152 -180 -157 -173 -157 -178 -163 -171 -192 -202 -223 -220 -201 -192 -194 -167 -162 -172 -177 -144 -165 -85 -119 -465 -303 -186 -197 -157 -178 -169 -177 -162 -171 -170 -163 -179 -180 -180 -169 -191 -183 -175 -157 -160 -146 -172 -164 -187 -207 -201 -211 -205 -205 -211 -186 -231 -210 -212 -224 -244 -230 -239 -224 -231 -232 -248 -261 -262 -253 -245 -213 -228 -212 -219 -236 -226 -224 -245 -235 -283 -262 -286 -279 -267 -235 -230 -238 -216 -196 -249 -202 -224 -179 -31 -368 -528 -283 -233 -201 -220 -179 -230 -189 -201 -182 -182 -207 -206 -211 -210 -209 -176 -191 -184 -167 -162 -143 -169 -154 -208 -207 -207 -210 -181 -176 -203 -193 -191 -197 -201 -188 -186 -194 -199 -184 -181 -157 -183 -161 -171 -162 -157 -141 -145 -143 -132 -113 -125 -108 -101 -103 -98 -88 -96 -84 -127 -133 -148 -148 -141 -91 -70 -78 -62 -61 -47 -53 -22 -45 145 -109 -472 -159 -71 -83 -37 -39 -29 -38 -35 -27 -24 -42 -44 -48 -47 -47 -38 -31 -26 -22 -7 0 -23 -12 -32 -37 -69 -55 -57 -38 -53 -51 -30 -53 0 0 -20 18 0 -7 3 11 1 14 16 16 1 24 4 17 19 24 12 19 15 1 3 20 5 -25 -17 -25 -52 -37 -23 -9 -9 8 33 27 -8 26 22 137 -130 -346 -144 -65 15 22 10 30 48 24 8 4 17 0 0 8 -4 21 28 55 51 64 56 51 35 1 -24 -32 -35 -35 -51 -44 -32 -49 -48 -55 -59 -32 -40 -34 -43 -31 -42 -45 -10 -38 
#avF[uV]
-7488 -8823 -6751 -7588 -5471 -6232 -4053 -4826 -2653 -3418 -1252 -1211 -1205 -1215 -1227 -1168 -1134 -1122 -1086 -1068 -999 -1044 -1007 -1078 -1157 -1182 -1142 -1200 -1192 -1196 -1181 -1188 -1200 -1174 -1171 -1191 -1198 -1164 -1166 -1164 -1154 -1143 -1098 -1123 -1115 -1082 -1039 -1022 -923 -942 -975 -1033 -1054 -1075 -1091 -1052 -1095 -1035 -1089 -838 -47 -318 -802 -964 -1010 -984 -1045 -988 -995 -983 -939 -933 -932 -911 -882 -838 -795 -738 -683 -663 -583 -535 -537 -533 -583 -627 -618 -656 -680 -649 -646 -635 -601 -574 -567 -574 -539 -508 -496 -472 -436 -469 -432 -397 -422 -382 -345 -336 -257 -210 -98 -141 -147 -195 -235 -223 -254 -239 -223 -207 -201 -31 817 615 47 -56 -91 -97 -134 -89 -67 -82 -40 -5 29 53 102 134 176 209 275 335 424 448 481 450 399 364 312 282 302 315 319 332 328 366 401 401 401 418 451 474 487 487 497 523 495 548 560 559 588 595 608 665 692 741 837 838 802 785 735 673 696 615 708 624 743 608 1028 1791 1072 793 766 680 735 675 724 686 750 748 771 775 809 830 880 917 986 994 1043 1111 1071 1102 1035 1008 961 923 919 851 902 862 876 897 893 925 927 897 925 923 930 923 962 905 926 923 934 883 922 899 880 921 910 882 906 887 892 854 916 881 929 957 971 985 1038 1024 975 934 882 837 864 820 886 776 907 744 1296 1836 1142 843 823 727 694 706 705 674 713 715 736 747 773 767 846 854 891 936 949 1011 1003 1002 941 911 843 767 750 733 739 688 743 720 727 731 715 721 727 695 689 696 734 711 727 709 716 690 706 692 688 682 732 696 721 698 716 715 688 703 714 678 695 693 700 742 807 806 848 873 849 776 739 672 645 614 686 550 656 511 732 1652 1332 752 629 551 579 508 554 574 567 593 631 615 638 625 677 681 756 777 814 866 894 886 900 837 770 738 688 649 637 615 639 605 620 644 646 645 664 642 657 650 655 640 644 619 598 637 625 582 593 611 620 629 605 603 612 635 621 606 599 599 668 645 715 759 734 705 616 552 564 481 547 447 472 384 516 1376 1276 649 484 424 394 368 386 376 431 411 460 481 469 462 510 493 529 565 626 690 709 707 704 634 550 500 413 351 345 313 295 253 301 275 244 234 245 254 232 209 214 171 170 147 148 120 86 84 62 41 78 75 115 148 167 137 31 -18 -82 -132 -138 -121 -205 -203 -242 281 832 260 -155 -241 -302 -304 -349 -340 -390 -400 -356 -353 -383 -372 -367 -341 -347 -296 -280 -238 -184 -252 -202 -235 -303 -348 -405 -425 -468 -472 -494 -518 -486 -487 -526 -505 -502 -502 -527 -517 -503 -522 -498 -526 -559 -544 -504 -424 -372 -361 -432 -467 -508 -545 -574 -631 -564 -618 -634 -666 -111 387 -210 -491 -600 -677 -651 -669 -668 -650 -627 -639 -637 -611 -585 -559 -519 -519 -464 -429 -409 -346 -327 -316 -348 -411 -464 -508 -557 -559 -518 -534 -559 -528 -523 -512 -517 -511 -509 -494 -488 -491 -477 -516 -476 -464 -492 -464 -476 -433 -379 -356 -300 -261 -290 -361 -400 -421 -423 -482 -470 -493 -465 -490 -95 705 151 -357 -398 -445 -428 -484 -429 -453 -451 -422 -385 -369 -385 -352 -301 -262 -245 -151 -80 -23 6 25 -4 -93 -124 -180 -215 -219 -231 -228 -231 -228 -198 -189 -181 -182 -181 -165 -155 -154 -180 -177 -168 -157 -117 -133 -167 -60 -49 -17 38 65 135 148 122 72 2 -50 -34 -69 -65 -106 -62 -126 209 1117 710 76 6 -58 -49 -68 -38 -34 -49 2 -15 48 48 20 113 145 199 233 276 370 384 397 370 313 217 185 148 157 147 127 153 148 157 175 154 165 196 191 200 203 170 192 206 210 212 224 217 240 221 220 214 249 236 299 355 368 461 486 483 429 345 316 293 264 289 240 219 168 267 1217 1356 558 316 308 260 279 303 302 299 323 336 342 372 400 399 457 506 562 586 673 702 686 731 682 597 562 507 472 465 470 445 471 494 490 479 505 513 518 500 515 468 483 499 482 494 494 472 471 465 461 445 455 479 479 503 552 552 625 663 626 543 496 411 413 353 362 322 335 267 594 1430 1040 463 381 267 322 239 279 263 236 273 273 264 273 289 296 299 341 402 419 453 483 448 449 408 328 295 223 209 176 132 153 116 127 152 150 134 113 61 92 104 87 74 37 18 34 5 -51 -22 -29 38 105 67 117 35 -41 -82 -136 -150 -192 -207 -235 -209 -266 320 772 186 -148 -282 -317 -289 -346 -381 -341 -339 -408 -394 -364 -317 -315 -361 -309 -279 -242 -222 -186 -173 -208 -256 -317 -345 -385 -397 -465 -461 -448 -504 -494 -481 -520 -514 -526 -521 -498 -587 -587 -562 -622 -592 -583 -597 -561 -519 -487 -457 -547 -571 -638 -685 -679 -739 -708 -751 -767 -798 -273 263 -260 -671 -756 -800 -792 -801 -829 -835 -794 -811 -779 -794 -781 -758 -717 -723 -670 -641 -562 -578 -506 -527 -561 -615 -636 -698 -734 -736 -750 -727 -728 -738 -716 -735 -724 -718 -696 -698 -702 -689 -669 -689 -682 -672 -665 -670 -679 -684 -621 -575 -513 -474 -468 -468 -546 -629 -628 -626 -671 -602 -684 -627 -668 -149 446 -166 -539 -588 -612 -599 -602 -562 -577 -559 -525 -553 -480 -488 -445 -385 -338 -330 -237 -147 -104 -91 -78 -130 -156 -209 -276 -303 -293 -278 -296 -322 -239 -254 -237 -211 -213 -215 -162 -154 -140 -171 -123 -123 -138 -155 -124 -129 -86 -93 -88 -74 10 25 100 102 141 84 60 -6 -26 -10 -30 -10 -35 2 -9 626 1092 390 126 100 44 30 37 36 68 74 93 111 157 167 223 227 305 331 395 449 511 518 543 493 450 375 354 306 323 313 333 320 359 319 368 391 420 381 402 395 431 422 382 408 432 399 452 387 449 424 424 438 458 451 443 473 496 501 593 607 677 696 664 661 624 551 556 493 541 528 548 480 549 1114 1242 981 731 552 567 489 526 461 477 481 534 530 518 558 590 614 658 674 757 804 845 886 863 826 783 674 680 605 583 561 551 559 593 544 589 590 579 569 591 573 567 547 549 527 563 533 504 513 492 498 504 493 511 483 510 491 490 500 569 565 635 636 635 608 546 489 445 399 421 415 442 353 419 1027 1115 825 596 400 396 328 324 289 295 282 329 349 345 354 373 356 422 436 470 518 562 600 583 552 523 426 389 328 339 303 258 291 268 261 269 291 300 250 260 263 245 229 224 215 195 183 169 180 163 148 183 202 215 218 279 312 266 191 152 123 86 -9 33 -9 0 -90 161 919 673 136 17 -95 -118 -184 -109 -141 -166 -183 -133 -168 -113 -125 -102 -117 -105 -73 -8 19 29 45 23 -43 -92 -178 -185 -262 -258 -311 -326 -319 -347 -345 -316 -354 -350 -373 -383 -429 -446 -456 -454 -499 -503 -487 -532 -519 -440 -395 -402 -487 -486 -591 -647 -669 -714 -703 -756 -741 -818 -443 256 -265 -698 -815 -887 -897 -918 -926 -945 -961 -944 -970 -959 -965 -946 -961 -918 -914 -889 -845 -814 -830 -779 -859 -870 -972 -1004 -1035 -1040 -1047 -1034 -1108 -1080 -1126 -1111 -1126 -1116 -1148 -1106 -1140 -1140 -1169 -1157 -1191 -1172 -1208 -1167 -1215 -1203 -1218 -1222 -1169 -1137 -1151 -1075 -1127 -1073 -1174 -1174 -1232 -1274 -1238 -1266 -1247 -1276 -1285 -1011 -317 -528 -1219 -1202 -1272 -1306 -1261 -1280 -1257 -1263 -1247 -1237 -1227 -1218 -1198 -1190 -1164 -1115 -1058 -1036 -996 -930 -902 -906 -989 -995 -1066 -1091 -1092 -1094 -1109 -1085 -1083 -1063 -1071 -1054 -1045 -1009 -1029 -1012 -1008 -988 -1007 -980 -968 -996 -986 -954 -979 -938 -945 -931 -905 -906 -849 -748 -735 -679 -661 -707 -761 -777 -846 -809 -828 -761 -853 -768 -830 -197 427 -251 -663 -645 -720 -693 -712 -687 -715 -654 -647 -608 -569 -564 -552 -502 -450 -381 -316 -266 -240 -161 -143 -157 -191 -259 -277 -295 -320 -322 -321 -271 -228 -243 -264 -235 -203 -194 -208 -170 -147 -148 -172 -128 -157 -138 -147 -108 -100 -108 -89 -65 -39 -30 -61 -19 -5 82 101 183 207 232 207 157 106 51 73 55 51 101 44 112 605 960 617 294 192 144 95 97 91 126 171 183 152 199 216 246 285 329 337 396 452 546 548 605 529 534 458 431 396 372 351 343 333 360 341 366 345 394 336 367 385 357 357 383 338 334 331 337 338 323 301 320 332 342 322 356 375 429 474 538 546 469 442 345 325 309 261 305 259 288 189 847 1382 683 348 287 268 188 214 225 181 240 199 246 219 269 283 273 305 355 376 432 489 500 500 476 423 348 258 260 210 211 179 164 205 212 148 195 173 176 168 204 186 146 166 136 130 142 122 143 137 202 221 264 321 237 209 151 87 105 48 76 5 16 -51 474 1087 556 144 38 -76 -59 -51 -45 -80 -72 -39 -44 -30 -16 -6 10 16 51 78 124 181 217 210 197 150 111 73 7 1 -6 -4 14 -9 -16 -25 3 26 -5 0 22 -8 -2 19 20 0 51 11 50 147 194 189 193 130 107 39 21 4 29 -5 44 -13 252 1012 720 165 117 12 58 2 46 33 51 47 81 107 94 126 159 206 248 259 336 354 444 413 472 388 338 286 259 231 265 224 253 247 258 296 301 290 285 282 337 326 321 321 332 302 349 324 324 309 358 350 397 441 458 550 555 497 502 427 391 362 385 364 375 355 400 707 1223 949 533 429 393 387 416 391 400 411 403 410 461 469 507 498 561 592 647 682 744 768 801 775 741 676 633 597 579 562 573 522 585 581 558 590 617 596 616 591 594 559 584 588 584 575 571 547 560 549 581 601 575 581 625 632 697 701 770 775 754 728 682 622 593 540 626 526 601 512 595 1381 1306 803 599 553 561 507 553 525 533 525 524 536 575 578 607 636 644 700 791 790 842 881 863 819 805 745 672 655 636 603 629 611 616 631 612 605 618 613 623 607 609 541 584 565 547 551 553 533 543 540 535 527 541 515 541 532 519 520 532 544 601 617 664 706 682 622 576 501 480 446 448 401 442 380 358 1060 1408 849 463 427 358 355 349 361 377 356 358 391 416 420 448 464 501 517 573 635 660 692 735 710 624 530 503 473 448 411 399 414 399 391 458 494 508 478 480 470 456 449 444 457 429 438 448 412 415 393 390 385 393 385 397 405 392 361 402 435 432 499 554 519 487 444 360 326 300 260 303 269 256 248 949 1321 642 341 238 205 205 161 158 191 217 208 199 241 242 270 271 280 314 347 424 474 467 462 466 390 316 262 202 196 188 164 122 161 165 159 162 138 140 135 125 128 122 119 72 127 
