ADC Sampling rate (Hz):
100
Fragment duration (sec):
20
Number of samples exported by each lead:
1999

#I[uV]
-2049 -1900 -1678 -1504 -1283 -1074 -882 -688 -471 -534 -73 -71 -70 -71 -72 -67 -73 -86 -64 -54 -39 -18 -20 -20 -77 -104 -94 -99 -102 -98 -56 75 194 -147 -487 -367 -139 -104 -97 -59 -60 -45 -43 -25 -25 8 27 27 79 102 152 164 178 180 144 83 6 -19 -58 -109 -103 -81 -69 -101 -80 -78 -79 -94 -104 -78 -78 -87 -101 -101 -88 -105 -112 -84 -85 -57 -35 -26 -42 -59 -94 -103 -85 -100 -95 -113 -70 119 258 -212 -509 -360 -161 -99 -104 -62 -92 -68 -66 -69 -47 -39 -7 26 50 95 129 144 163 186 179 97 17 -53 -82 -86 -119 -135 -113 -125 -119 -125 -125 -117 -107 -115 -127 -127 -115 -130 -141 -136 -124 -120 -105 -99 -87 -70 -77 -153 -139 -133 -178 -142 -158 -103 -4 145 89 -487 -565 -340 -196 -131 -114 -89 -95 -48 -73 -79 -56 -39 -28 7 43 127 163 180 207 160 117 57 -20 -108 -138 -136 -133 -137 -129 -121 -99 -96 -100 -109 -116 -117 -111 -134 -131 -98 -69 -80 -67 -94 -43 -63 -120 -134 -135 -145 -134 -151 -161 -94 46 192 -123 -560 -512 -311 -167 -156 -118 -122 -133 -93 -130 -106 -95 -109 -40 -2 32 103 121 112 133 84 -9 -49 -129 -179 -175 -202 -204 -199 -185 -204 -180 -193 -207 -197 -212 -221 -197 -185 -193 -206 -201 -168 -184 -174 -138 -152 -169 -207 -249 -232 -226 -250 -242 -206 -13 111 -297 -573 -453 -241 -187 -199 -160 -186 -133 -128 -114 -104 -119 -98 -71 -41 -27 45 66 65 61 25 -50 -129 -157 -223 -208 -190 -212 -205 -203 -228 -198 -175 -201 -184 -212 -177 -176 -187 -166 -142 -161 -155 -152 -168 -109 -117 -130 -159 -187 -140 -144 -126 -155 -82 -19 146 58 -498 -464 -222 -148 -86 -102 -72 -60 -81 -39 -28 -28 -19 9 51 74 90 150 150 183 167 82 36 -27 -46 -81 -96 -114 -147 -112 -121 -104 -117 -117 -120 -106 -104 -110 -80 -73 -51 -64 -76 -44 -51 -68 -53 -50 -30 -1 -60 -102 -100 -87 -94 -98 -23 -39 82 223 -220 -448 -271 -130 -50 -28 9 6 31 19 43 25 19 59 82 135 142 178 232 196 231 231 135 76 28 3 -47 -45 -46 -100 -42 -49 -67 -52 -27 -39 -30 -8 -13 16 -2 -31 -35 -37 -29 -57 -33 -26 -33 -10 12 61 45 23 -38 -55 -39 -46 -46 -57 15 120 321 67 -412 -275 -57 -24 -28 21 -5 19 13 14 69 60 119 124 143 235 222 242 272 255 231 191 131 61 32 12 -4 19 26 4 1 -14 8 12 31 7 5 30 24 53 73 72 62 76 89 87 112 122 117 117 130 122 106 123 154 163 132 83 57 70 27 85 44 105 168 144 71 -264 -232 9 68 83 103 108 103 110 124 139 144 172 215 247 291 337 335 358 388 317 312 254 147 121 68 71 58 42 61 39 81 79 79 104 90 110 113 85 82 83 59 71 66 68 68 46 61 45 62 88 106 113 126 160 136 109 118 83 99 111 74 136 137 120 379 109 -327 -187 24 71 87 107 118 123 161 139 153 199 200 278 251 318 330 298 372 272 340 230 175 214 124 94 64 99 70 97 99 77 89 89 86 76 75 103 104 94 87 106 120 101 105 128 121 81 83 120 96 136 133 105 176 177 137 101 93 106 65 101 59 152 210 83 107 -138 -178 27 84 95 126 112 138 142 139 166 165 186 211 222 268 334 345 337 349 277 310 252 183 145 90 94 82 90 89 83 83 97 89 122 103 80 118 80 96 87 96 104 74 77 91 78 83 95 86 96 114 94 135 142 126 102 58 78 62 61 52 52 102 192 355 72 -330 -203 19 48 75 96 95 118 118 142 121 148 169 182 204 239 288 329 354 362 323 252 202 131 79 70 54 60 47 61 46 53 49 69 61 58 48 71 66 54 64 47 49 48 56 57 61 52 67 73 81 84 126 130 75 39 49 59 40 70 53 108 193 336 135 -289 -306 -89 49 107 88 110 121 133 136 144 163 185 198 219 259 301 354 372 396 400 314 245 206 130 122 100 83 70 67 56 80 92 81 108 112 77 93 107 91 94 92 86 94 108 110 130 117 105 149 152 133 102 99 94 72 102 76 161 222 365 167 -261 -234 -32 68 125 143 178 143 152 178 159 166 207 231 253 287 321 372 396 393 376 310 142 170 118 87 70 82 62 60 82 82 90 80 68 81 69 44 102 91 56 91 50 65 84 109 93 136 151 85 52 63 54 36 50 44 107 137 246 173 -269 -274 -72 42 97 93 89 125 126 121 134 123 151 152 181 228 233 261 279 305 300 259 184 129 94 48 19 39 36 6 32 30 48 27 2 40 13 21 29 29 39 26 28 59 78 73 82 77 48 28 18 7 16 2 39 102 204 244 -164 -340 -181 -14 52 18 51 66 53 79 84 64 90 113 150 165 187 214 242 245 248 222 134 103 60 8 -26 -16 -34 -32 -23 -43 -21 -30 -18 -21 -26 -25 -29 -20 -34 -26 -4 1 7 18 -25 -58 -55 -60 -106 -59 -83 -41 24 105 75 -424 -462 -199 -101 -70 -67 -70 -64 -84 -57 -49 -53 -13 -7 -4 31 62 89 127 99 91 46 -14 -73 -120 -142 -157 -164 -174 -178 -167 -184 -190 -176 -201 -177 -178 -195 -181 -180 -170 -201 -166 -147 -159 -166 -233 -246 -229 -237 -232 -286 -187 -154 5 -20 -574 -631 -371 -300 -229 -237 -231 -234 -198 -197 -210 -192 -156 -182 -137 -120 -84 -45 -11 -23 -41 -68 -145 -213 -261 -276 -283 -274 -291 -289 -289 -288 -295 -298 -283 -293 -294 -275 -298 -292 -298 -295 -259 -284 -259 -224 -254 -286 -322 -289 -316 -309 -309 -273 -217 -46 3 -499 -713 -486 -340 -266 -289 -248 -263 -247 -237 -224 -199 -201 -186 -138 -122 -77 -26 -24 1 -19 -19 -106 -144 -208 -253 -256 -274 -279 -268 -261 -248 -236 -245 -244 -240 -242 -216 -240 -250 -215 -244 -235 -233 -239 -207 -202 -181 -174 -187 -209 -235 -217 -240 -222 -240 -184 -88 92 -18 -575 -564 -338 -221 -160 -192 -162 -151 -129 -132 -108 -98 -56 -40 -27 0 54 94 112 110 93 59 -9 -79 -106 -133 -154 -149 -192 -145 -173 -162 -144 -159 -118 -145 -153 -142 -151 -137 -124 -132 -143 -105 -136 -117 -91 -71 -70 -103 -126 -127 -139 -162 -123 -159 -88 -3 137 -29 -483 -489 -288 -149 -104 -111 -48 -49 -69 -43 -14 -5 0 36 44 72 124 170 203 218 204 154 71 11 -37 -98 -74 -67 -93 -90 -89 -77 -80 -79 -85 -61 -58 -72 -61 -71 -67 -58 -44 -34 -31 -3 7 -21 -44 -51 -50 -57 -43 -84 -8 33 160 132 -312 -360 -237 -78 22 11 2 2 42 45 71 70 68 101 105 160 201 214 282 271 268 213 132 99 26 -15 -19 -14 -13 -28 -27 -26 -26 -13 -7 -6 -15 0 17 -5 -21 -3 -3 5 15 21 47 75 35 -10 9 -14 -12 2 -19 37 78 144 189 -261 -376 -171 -39 57 18 67 38 70 79 77 93 83 122 146 156 207 233 255 249 233 240 162 100 47 17 29 2 3 -7 -10 7 9 11 7 17 3 5 39 4 3 4 0 4 -14 24 48 62 73 78 41 -6 27 -6 -13 36 -16 76 109 220 151 -308 -296 -52 28 47 16 81 68 68 97 97 108 130 139 150 180 226 257 270 289 252 202 166 101 46 21 1 -1 -7 -9 -10 -24 0 -12 -13 23 10 4 -7 -8 3 2 -11 -23 -29 15 -3 -17 13 25 31 27 30 -23 -35 -33 -47 -8 -59 4 70 213 147 -357 -371 -141 -38 -2 -12 38 16 15 65 54 59 111 91 122 170 186 236 245 259 250 220 157 55 51 32 -7 -7 -8 -7 -30 -14 -2 23 5 1 -6 9 -1 -4 7 9 18 22 -15 -3 -24 -15 21 -4 22 41 33 49 55 55 5 -11 16 0 7 -32 50 64 244 238 -346 -360 -118 -3 35 39 80 40 65 80 92 74 111 123 167 185 210 255 282 296 294 273 197 124 85 57 40 27 3 5 26 25 27 30 25 27 34 26 13 30 35 21 9 14 36 8 17 15 13 23 23 26 53 49 43 15 -9 3 -10 -15 -10 9 57 263 95 -256 -354 -246 -46 1 -8 39 25 53 51 75 78 92 105 107 152 181 243 289 286 291 225 203 135 73 13 1 -21 -37 -36 -44 -24 -16 -26 -25 -25 5 -9 -21 -5 -16 -26 -3 -17 10 -25 -13 -4 15 20 33 52 27 -25 0 -3 -29 10 -28 29 68 260 205 -363 -404 -240 -72 27 0 37 43 40 55 69 60 65 98 108 159 176 231 267 265 254 208 169 94 15 -12 -16 -45 -46 -46 -28 -52 -21 -22 -41 -20 -9 -12 -17 -24 -8 -10 -10 -24 -35 -25 1 -1 -2 4 17 15 -28 -35 -37 -73 -24 -49 4 42 174 202 -308 -399 -172 -47 -3 -11 4 28 49 31 28 64 73 86 100 122 180 209 226 235 236 206 128 104 11 -7 -11 -36 -18 -38 -34 -21 -46 -19 -8 -21 -20 -2 -33 -29 -13 -36 -25 -20 -14 -12 -28 -6 38 45 19 -33 -41 -48 -45 -22 -45 -13 53 163 128 -265 -387 -250 -51 -10 -21 -4 8 30 29 28 56 61 67 107 122 159 225 235 244 231 206 153 75 53 -39 -17 -30 -54 -33 -35 -23 -16 -15 -43 -20 -14 -17 -16 -16 8 -6 0 -26 -8 -1 0 42 44 57 36 -12 -38 -21 2 -4 -47 44 103 271 165 -355 -366 -96 -12 25 18 32 62 53 66 78 78 98 105 128 173 217 226 273 277 270 235 159 107 45 16 9 -12 -5 -19 -11 7 7 -4 -1 21 6 -6 0 6 -1 7 -8 16 12 13 38 65 47 11 -4 0 -17 2 -26 -25 30 221 283 -100 -386 -275 -100 -6 -2 30 37 40 42 63 62 77 88 128 146 176 216 258 300 302 243 189 108 59 13 -23 -17 -42 -51 -40 -41 -53 -44 -45 -60 -20 2 -5 -28 -16 -1 -9 -5 -11 2 27 63 27 -40 -39 -28 -40 -29 -52 -27 31 187 231 -223 -410 -293 -99 -10 -36 -11 -2 
#II[uV]
7567 7181 5985 5565 4463 4077 2908 2487 1374 828 -183 -166 -190 -191 -202 -190 -198 -151 -71 -27 24 -10 -61 -126 -206 -263 -274 -280 -272 -308 -316 120 963 758 -199 -348 -244 -311 -292 -274 -264 -241 -227 -210 -199 -161 -129 -98 -46 2 78 147 173 220 208 146 62 5 -70 -131 -148 -126 -115 -150 -107 -103 -105 -107 -128 -118 -112 -129 -154 -143 -153 -151 -174 -90 -14 13 63 26 -25 -101 -178 -224 -225 -262 -242 -291 -316 128 970 788 -112 -310 -242 -319 -297 -269 -257 -243 -232 -221 -199 -163 -132 -94 -72 -6 58 112 165 222 248 195 115 -17 -41 -86 -123 -127 -117 -118 -111 -122 -122 -124 -136 -139 -139 -139 -142 -181 -203 -202 -133 -68 -44 17 30 -22 -62 -174 -206 -221 -280 -231 -276 -269 -152 553 1213 144 -483 -336 -315 -278 -297 -259 -265 -230 -242 -243 -208 -178 -157 -125 -77 8 44 112 164 144 148 67 -33 -149 -219 -219 -231 -246 -249 -284 -243 -242 -265 -285 -305 -331 -328 -339 -339 -340 -304 -248 -196 -186 -182 -307 -374 -379 -447 -470 -496 -465 -541 -566 -213 546 606 -372 -715 -625 -596 -605 -640 -616 -627 -591 -628 -659 -595 -595 -540 -502 -490 -414 -330 -326 -339 -354 -444 -499 -613 -664 -706 -753 -779 -781 -782 -816 -804 -804 -850 -854 -887 -894 -904 -884 -911 -912 -878 -846 -806 -755 -780 -840 -937 -980 -1063 -1046 -1064 -1082 -1113 -1119 -653 115 -138 -1024 -1176 -1142 -1157 -1158 -1129 -1153 -1166 -1134 -1091 -1085 -1088 -1051 -1015 -970 -946 -882 -788 -768 -753 -789 -839 -939 -1013 -1103 -1125 -1125 -1146 -1134 -1146 -1136 -1135 -1147 -1135 -1118 -1147 -1137 -1136 -1138 -1159 -1118 -1119 -1063 -1001 -964 -918 -992 -1034 -1097 -1146 -1111 -1141 -1087 -1158 -1085 -940 -226 364 -764 -1247 -1041 -1092 -1051 -1069 -1024 -989 -1000 -969 -912 -912 -888 -813 -749 -687 -632 -538 -498 -426 -398 -448 -519 -630 -683 -704 -731 -742 -763 -723 -723 -682 -682 -682 -659 -655 -657 -634 -617 -624 -569 -570 -583 -518 -480 -431 -360 -308 -367 -378 -462 -518 -536 -523 -544 -501 -501 -497 3 856 364 -446 -463 -442 -453 -427 -390 -354 -340 -317 -280 -269 -263 -190 -165 -91 -40 45 124 143 225 262 173 92 0 -37 -113 -99 -112 -140 -96 -81 -95 -56 -43 -33 -24 8 -8 23 11 -4 0 9 0 6 34 119 172 230 283 275 229 164 63 49 60 40 73 35 57 480 1338 1195 204 109 162 117 107 146 134 159 182 195 249 263 339 386 407 521 546 614 687 709 733 703 598 502 445 416 398 400 404 402 394 393 417 423 427 425 414 449 440 456 486 484 484 489 505 509 533 561 553 553 632 670 697 761 745 706 659 587 534 544 463 567 470 534 794 1179 1568 734 406 599 499 560 530 582 565 577 628 640 650 691 752 809 864 944 982 1042 1093 1070 1076 1008 870 821 729 717 691 688 684 695 729 727 715 740 721 737 741 716 701 701 677 688 678 689 677 677 681 678 733 819 847 910 931 904 853 781 744 697 681 715 642 749 656 1114 2006 1128 549 708 640 691 618 675 688 684 725 725 740 823 824 912 909 999 1046 1049 1139 1085 1163 1052 984 962 815 804 740 751 722 748 733 734 734 745 734 713 714 741 713 713 697 726 715 719 697 734 725 697 699 727 774 869 883 895 899 840 744 704 628 677 570 712 542 714 888 1085 1774 878 488 720 531 602 554 584 574 600 600 651 650 683 704 753 798 903 932 977 998 981 1001 931 798 730 644 616 578 586 575 587 578 602 571 616 581 582 593 566 554 556 551 562 519 514 514 513 500 525 533 620 646 692 736 667 598 539 440 463 404 437 390 426 345 929 1648 1003 357 412 374 387 331 375 338 394 379 431 394 448 486 498 520 590 651 729 764 821 809 752 663 554 465 425 373 383 355 377 373 333 358 358 360 347 335 347 320 311 311 282 285 269 278 265 283 247 324 358 393 448 429 392 298 234 189 180 144 196 106 137 323 1032 1398 410 -58 79 79 146 70 141 115 143 156 177 191 234 234 295 335 400 463 526 564 602 543 496 393 307 247 192 173 139 151 138 150 161 148 164 154 143 124 137 125 123 123 118 104 117 178 228 271 278 292 265 185 110 75 54 10 84 0 47 266 991 1225 214 -131 -10 -35 36 2 47 19 53 57 83 79 138 151 200 246 302 384 451 460 501 447 292 271 179 97 63 63 54 39 64 62 73 63 63 50 49 11 42 29 14 25 10 43 126 163 237 219 187 95 8 -27 -31 -84 -33 -108 -67 30 741 1296 189 -282 -69 -140 -35 -98 -66 -59 -38 -25 13 -10 39 64 115 162 230 287 342 392 445 394 330 215 140 45 -8 -5 -29 -44 -3 -28 15 -19 -33 -16 -29 -32 -36 -24 -39 -20 73 88 202 175 145 73 -11 -69 -108 -131 -121 -135 -139 -111 416 1140 617 -184 -150 -105 -110 -167 -110 -121 -107 -83 -76 -74 -30 -6 52 76 147 205 251 304 363 349 273 201 123 18 -32 -59 -86 -73 -48 -85 -52 -62 -50 -76 -57 -69 -73 -77 -49 13 70 109 103 35 -20 -123 -146 -189 -228 -172 -228 -246 -117 572 1270 229 -400 -178 -262 -254 -262 -245 -234 -279 -214 -219 -196 -157 -138 -118 -38 0 76 113 139 147 122 45 -65 -128 -187 -230 -238 -290 -269 -258 -268 -254 -237 -276 -254 -265 -272 -271 -232 -192 -178 -104 -117 -167 -226 -347 -394 -406 -444 -412 -500 -462 -353 355 1081 85 -598 -423 -530 -477 -487 -486 -489 -467 -446 -457 -423 -425 -398 -331 -303 -256 -172 -123 -115 -97 -108 -185 -285 -376 -417 -446 -468 -485 -483 -483 -467 -486 -487 -472 -478 -488 -484 -507 -514 -489 -424 -366 -332 -306 -357 -415 -514 -573 -591 -618 -632 -643 -622 -607 -32 789 174 -672 -614 -634 -616 -666 -671 -657 -654 -618 -591 -567 -567 -541 -481 -444 -378 -315 -266 -227 -230 -174 -250 -329 -416 -525 -554 -555 -582 -560 -542 -542 -519 -540 -556 -527 -541 -518 -580 -556 -557 -586 -562 -549 -489 -444 -374 -372 -412 -470 -566 -600 -592 -650 -601 -659 -686 -510 258 811 -239 -746 -606 -654 -588 -632 -611 -589 -563 -552 -525 -503 -468 -430 -406 -343 -317 -239 -167 -132 -110 -110 -179 -284 -324 -377 -444 -430 -459 -426 -445 -432 -413 -423 -419 -443 -442 -443 -457 -445 -446 -457 -458 -407 -365 -321 -267 -234 -272 -345 -421 -445 -479 -514 -448 -518 -501 -345 394 844 -208 -650 -509 -499 -467 -521 -437 -427 -424 -390 -364 -343 -327 -285 -256 -211 -148 -70 -12 27 64 40 -34 -118 -200 -299 -316 -304 -330 -341 -329 -317 -319 -317 -334 -312 -312 -336 -344 -344 -343 -334 -235 -223 -195 -133 -167 -249 -322 -376 -401 -408 -433 -453 -415 -398 211 845 64 -508 -411 -435 -388 -422 -413 -414 -367 -369 -359 -314 -291 -285 -239 -183 -104 -80 -8 50 74 15 -42 -87 -184 -269 -286 -320 -350 -331 -309 -320 -308 -308 -285 -303 -291 -287 -313 -293 -297 -341 -290 -188 -165 -91 -73 -114 -190 -285 -314 -348 -358 -318 -359 -342 -257 344 1038 178 -491 -327 -335 -286 -332 -292 -304 -271 -249 -261 -248 -195 -133 -110 -69 -11 83 155 177 201 214 97 31 -47 -144 -155 -188 -210 -195 -186 -157 -144 -132 -142 -128 -154 -185 -139 -132 -143 -163 -152 -138 -106 -20 47 96 66 2 -49 -132 -145 -168 -213 -134 -230 -173 26 721 1285 170 -298 -98 -162 -121 -164 -141 -110 -96 -57 -57 -23 2 25 67 131 171 292 322 386 386 339 281 191 94 59 5 5 -37 -10 -10 0 12 11 6 51 39 39 27 19 20 31 16 0 -15 38 69 131 175 251 223 170 109 34 -13 -14 -62 9 -81 -38 108 823 1461 393 -169 30 -71 -12 -49 1 -29 -1 34 45 45 110 120 182 231 283 356 419 455 489 485 401 276 230 167 126 98 98 98 98 112 127 129 132 128 117 120 122 97 108 107 116 110 97 109 98 97 110 135 247 260 307 308 255 212 123 77 80 57 85 9 48 149 832 1538 533 -62 104 52 67 56 103 64 100 112 148 137 186 220 262 299 352 422 498 522 555 560 498 410 327 258 219 192 176 178 199 199 203 202 197 184 197 176 187 176 171 158 158 153 169 135 156 144 184 238 272 336 356 277 264 176 122 89 100 81 136 66 137 694 1052 623 114 40 85 49 50 60 57 83 108 117 146 172 195 197 266 294 386 457 493 507 491 470 387 290 204 166 120 104 105 82 96 109 99 87 87 112 101 79 68 82 70 63 64 64 40 70 163 180 247 225 212 135 39 26 6 -32 32 -61 -13 42 748 1303 357 -176 -37 -78 -5 -77 -16 -39 -18 1 50 23 49 88 123 148 240 279 374 406 430 402 354 277 176 95 67 24 24 8 26 13 21 16 23 8 31 21 0 -2 10 -6 -6 -21 -22 28 131 131 192 184 135 71 -11 -42 -63 -125 -51 -122 -80 -19 663 1366 392 -230 -52 -110 -70 -124 -85 -90 -46 -44 -44 -1 20 31 84 96 209 239 305 328 397 371 293 220 102 24 0 -42 -34 -65 -40 -40 -50 -47 -21 -39 -29 -41 -61 -69 -48 -80 -57 -80 -36 30 47 109 155 83 31 -83 -108 -159 -159 -159 -143 -168 -81 463 1012 526 -141 -147 -122 -159 -184 -183 -160 -138 -127 -116 -67 -65 -55 -10 38 84 161 215 265 275 298 254 147 71 -36 -58 -82 -118 -107 -97 -85 -73 -60 -82 -55 -91 -58 -80 -80 -80 -90 -73 -85 -43 27 41 143 105 69 7 -88 -160 -144 -161 -120 -200 -160 -29 722 1314 231 -302 -93 -182 -142 -178 -140 -132 -118 -109 -100 -78 -46 -27 -3 80 129 186 232 285 312 301 249 155 55 15 -35 -57 -67 -83 -71 -51 -59 -63 -62 -34 -73 -75 -77 -82 -92 -84 -84 -8 42 70 132 98 43 -50 -96 -115 -138 -164 -125 -204 -192 311 1096 729 -73 -199 -175 -192 -189 -193 -188 -169 -136 -125 -102 -114 -51 -30 21 54 113 173 236 270 268 215 145 61 -12 -90 -100 -135 -133 -146 -133 -146 -138 -140 -151 -125 -113 -121 -146 -146 -129 -140 -72 -65 23 56 9 -43 -150 -192 -216 -230 -221 -233 -219 -245 333 1064 456 -232 -233 -245 -206 -275 -249 -240 
#III[uV]
9617 9082 7663 7069 5747 5151 3790 3176 1845 1362 -109 -94 -119 -120 -130 -122 -125 -65 -7 27 63 7 -40 -105 -129 -158 -179 -180 -169 -210 -260 45 769 905 287 18 -105 -206 -195 -214 -204 -196 -184 -184 -173 -169 -156 -126 -126 -100 -74 -16 -5 40 64 62 55 25 -11 -22 -44 -45 -45 -48 -26 -25 -25 -13 -24 -40 -33 -41 -52 -42 -64 -46 -61 -6 70 70 98 52 17 -42 -84 -121 -139 -162 -146 -178 -246 8 712 1000 396 50 -80 -219 -193 -206 -164 -175 -166 -152 -152 -124 -125 -121 -122 -101 -70 -31 1 36 68 98 98 36 41 0 -3 8 -4 7 7 3 3 -7 -29 -23 -11 -11 -26 -51 -62 -65 -9 52 61 117 117 47 15 -21 -67 -88 -101 -88 -117 -165 -147 407 1123 632 81 4 -118 -146 -182 -169 -169 -182 -168 -163 -152 -139 -128 -132 -121 -119 -119 -68 -42 -15 30 10 -12 -40 -81 -82 -97 -108 -119 -162 -144 -146 -164 -176 -189 -214 -216 -205 -207 -242 -234 -168 -129 -92 -138 -244 -254 -245 -311 -324 -362 -313 -379 -472 -260 353 730 187 -203 -314 -429 -448 -522 -494 -494 -497 -497 -553 -500 -486 -499 -499 -523 -518 -452 -438 -472 -439 -434 -450 -483 -484 -530 -550 -575 -582 -597 -611 -624 -611 -643 -656 -674 -672 -706 -698 -717 -706 -676 -677 -621 -581 -641 -688 -767 -773 -813 -813 -837 -832 -871 -912 -640 3 159 -450 -723 -901 -970 -959 -968 -967 -1033 -1006 -977 -980 -969 -953 -943 -928 -919 -927 -855 -833 -815 -815 -788 -809 -855 -880 -916 -934 -933 -929 -942 -907 -936 -972 -934 -934 -935 -959 -960 -951 -992 -976 -957 -907 -849 -795 -808 -875 -903 -938 -958 -970 -997 -960 -1002 -1003 -921 -372 306 -265 -783 -818 -944 -965 -966 -952 -929 -919 -929 -883 -883 -869 -822 -800 -761 -723 -689 -648 -609 -566 -531 -555 -602 -636 -622 -635 -627 -616 -611 -602 -577 -564 -564 -538 -548 -553 -524 -537 -551 -518 -505 -506 -473 -429 -362 -306 -257 -337 -376 -401 -415 -435 -436 -450 -402 -477 -457 -78 633 585 2 -192 -312 -402 -399 -399 -361 -371 -336 -324 -295 -283 -250 -248 -227 -182 -132 -108 -52 -5 31 38 15 -28 -40 -65 -54 -65 -39 -53 -31 -27 -3 -16 5 5 17 5 7 13 27 36 47 28 63 67 146 206 241 270 213 184 141 102 104 100 86 120 93 42 359 1016 1127 616 385 220 141 136 124 140 140 169 181 179 203 220 262 263 285 324 372 414 454 502 512 466 441 413 404 403 381 378 397 392 408 408 410 396 418 408 418 415 403 412 412 422 412 415 422 421 439 435 435 502 547 591 637 591 542 526 503 477 473 436 481 426 429 625 1034 1497 999 638 589 430 477 426 474 462 467 503 501 505 519 536 562 572 607 646 683 704 752 764 753 722 700 660 645 632 645 622 655 647 647 636 635 630 626 627 631 618 617 617 616 611 621 609 630 620 632 671 730 741 796 804 743 717 672 626 613 582 604 567 612 519 993 1626 1019 876 896 615 619 530 567 570 561 563 585 586 624 623 634 658 680 715 751 766 812 823 821 809 747 691 710 675 651 651 650 634 656 644 655 648 637 638 637 608 618 609 620 594 617 591 605 604 616 616 606 677 732 750 789 722 662 606 603 534 571 505 610 482 562 677 1001 1667 1017 666 692 446 507 428 472 435 457 461 485 484 496 493 530 530 569 587 640 649 704 690 679 615 584 554 521 496 496 486 504 494 505 481 493 477 502 474 485 457 468 455 457 444 437 423 435 416 430 446 523 532 597 600 525 472 436 382 385 342 375 337 373 243 736 1292 930 688 615 355 339 255 278 243 276 260 289 273 300 316 316 315 350 362 400 410 459 485 499 460 423 385 354 319 323 307 315 327 280 309 288 299 288 287 275 253 256 247 234 236 220 221 207 222 195 256 284 311 364 302 262 222 195 139 120 103 125 52 28 129 696 1263 700 247 169 30 38 -17 31 -6 9 19 33 28 49 35 76 76 98 108 154 167 202 229 251 187 177 124 92 90 68 83 82 70 68 67 56 42 65 31 29 33 28 31 31 9 9 68 98 153 173 142 113 51 7 -23 -39 -61 -18 -77 -113 43 626 1057 475 102 21 -103 -89 -140 -131 -123 -99 -121 -76 -86 -69 -79 -53 -41 -18 12 54 66 124 137 150 101 60 9 -6 -18 -7 -20 -18 -20 -16 -16 -4 -31 -20 -32 -60 -62 -42 -65 -39 -21 42 53 143 82 36 10 -44 -90 -86 -120 -84 -152 -174 -107 494 1123 459 -8 3 -183 -132 -192 -156 -185 -164 -146 -120 -134 -111 -88 -66 -65 -2 25 62 86 145 134 145 86 45 -3 -28 -44 -66 -51 -36 -59 -32 -47 -36 -57 -42 -53 -65 -54 -79 -47 44 29 123 101 62 -3 -60 -97 -127 -139 -137 -138 -179 -214 211 896 782 156 30 -91 -162 -185 -162 -188 -160 -162 -160 -138 -120 -120 -98 -89 -40 -9 8 59 115 127 138 98 63 10 -5 -42 -52 -40 -25 -42 -30 -31 -31 -55 -31 -44 -44 -56 -15 40 75 108 96 17 5 -64 -90 -128 -122 -113 -144 -205 -141 466 1195 653 61 20 -161 -183 -194 -175 -170 -194 -156 -170 -142 -144 -130 -113 -70 -63 -12 -13 39 55 76 59 7 -7 -45 -73 -74 -115 -91 -91 -83 -64 -60 -74 -76 -86 -76 -90 -51 -21 22 62 30 -7 -59 -113 -147 -177 -206 -180 -214 -275 -198 350 1101 660 32 -52 -229 -247 -249 -255 -255 -269 -248 -247 -231 -268 -215 -194 -182 -172 -127 -112 -92 -56 -40 -40 -72 -115 -140 -162 -194 -193 -193 -193 -179 -190 -188 -188 -184 -194 -208 -209 -221 -191 -128 -107 -47 -47 -132 -161 -227 -250 -302 -302 -322 -333 -349 -389 13 786 673 40 -128 -293 -350 -377 -423 -394 -406 -380 -367 -368 -366 -354 -343 -322 -301 -288 -242 -228 -210 -154 -143 -184 -208 -271 -298 -280 -302 -291 -280 -294 -282 -295 -311 -286 -298 -301 -340 -306 -341 -341 -326 -316 -249 -237 -171 -190 -237 -282 -357 -365 -374 -409 -379 -418 -501 -421 166 829 336 -182 -268 -432 -427 -440 -449 -438 -433 -420 -416 -404 -411 -389 -379 -343 -371 -333 -280 -243 -204 -169 -169 -204 -218 -244 -290 -281 -267 -280 -271 -270 -269 -263 -300 -297 -288 -301 -306 -307 -322 -324 -314 -302 -228 -203 -175 -163 -202 -241 -295 -317 -340 -351 -325 -359 -413 -342 256 874 274 -161 -220 -350 -363 -409 -389 -378 -354 -346 -349 -338 -327 -321 -301 -284 -272 -240 -215 -190 -139 -113 -105 -129 -162 -200 -242 -237 -237 -250 -240 -240 -238 -238 -248 -250 -253 -264 -283 -273 -275 -276 -190 -188 -164 -130 -175 -228 -278 -324 -351 -351 -389 -368 -406 -432 51 713 376 -148 -173 -357 -411 -434 -416 -417 -409 -414 -431 -384 -359 -387 -344 -344 -305 -294 -291 -221 -193 -197 -174 -187 -210 -254 -266 -305 -337 -303 -281 -294 -281 -294 -278 -297 -275 -288 -330 -288 -276 -337 -286 -193 -181 -112 -121 -189 -226 -274 -323 -334 -345 -320 -339 -379 -335 200 848 440 -115 -156 -295 -343 -351 -360 -342 -342 -328 -338 -342 -278 -255 -256 -225 -218 -149 -100 -71 -32 -25 -65 -68 -94 -162 -184 -191 -214 -188 -175 -164 -154 -143 -149 -146 -157 -190 -178 -137 -147 -168 -152 -143 -91 -45 -1 34 -6 -76 -90 -125 -172 -162 -199 -170 -213 -250 -83 501 1134 479 -1 -46 -191 -168 -180 -223 -178 -165 -154 -155 -132 -127 -114 -83 -48 -54 35 52 96 133 136 115 90 48 38 4 7 -30 0 0 23 13 24 19 28 29 34 35 27 17 28 27 23 13 22 73 148 161 226 191 143 78 57 21 19 -15 17 -22 -43 38 610 1314 751 201 172 -32 -9 -37 -37 -45 -16 -31 -8 -13 0 28 60 60 96 119 174 195 239 264 244 220 178 134 133 106 106 106 129 127 130 106 127 126 124 110 124 101 101 98 98 87 113 112 123 112 89 139 225 219 273 258 200 156 118 88 64 56 78 42 -1 85 588 1299 880 298 222 56 32 16 22 23 34 31 55 63 74 96 95 114 142 167 216 226 260 287 300 286 242 201 179 164 172 173 173 173 176 172 172 156 162 149 174 146 135 137 148 139 132 126 138 128 170 215 249 309 302 227 220 160 131 86 110 97 146 57 80 431 956 879 469 287 131 47 59 21 32 30 56 41 67 79 90 90 113 113 143 168 206 216 265 266 251 216 190 165 142 142 141 127 120 126 126 112 112 106 110 100 74 98 96 67 81 53 65 84 167 164 227 191 160 108 64 27 9 -3 22 -33 -42 -26 487 1098 721 228 203 -6 -32 -76 -54 -82 -59 -53 -19 -37 -15 -9 15 -10 64 47 106 141 176 193 185 182 160 107 83 69 70 55 55 65 42 39 65 28 41 34 17 22 18 4 4 3 13 54 130 132 195 180 118 55 16 -6 -25 -52 -27 -73 -85 -62 488 1164 701 168 120 -62 -67 -113 -90 -119 -95 -75 -72 -66 -53 -54 -15 -26 29 30 79 92 160 165 165 116 91 32 11 -5 -15 -27 -6 -18 -3 -27 -13 -18 -8 -38 -28 -39 -34 -44 -32 -59 -22 43 75 115 116 37 11 -49 -67 -111 -114 -136 -97 -155 -135 300 883 791 245 103 -71 -149 -163 -179 -168 -169 -157 -145 -124 -127 -122 -117 -84 -74 -64 -20 20 44 92 100 71 18 3 -41 -51 -63 -73 -62 -62 -56 -45 -39 -35 -76 -40 -64 -64 -88 -83 -72 -59 -34 28 42 100 60 11 -29 -76 -121 -122 -164 -116 -152 -205 -132 451 1148 587 63 3 -169 -167 -196 -172 -194 -172 -176 -179 -156 -144 -133 -131 -93 -87 -40 -40 8 42 65 90 48 9 -1 -44 -44 -61 -63 -60 -59 -66 -58 -61 -56 -80 -69 -77 -88 -91 -91 -75 -25 29 56 94 33 -3 -61 -91 -114 -121 -166 -99 -179 -223 90 812 829 312 76 -75 -186 -186 -224 -226 -210 -178 -189 -165 -191 -139 -158 -125 -122 -102 -85 -63 -31 25 25 37 1 -26 -66 -83 -93 -82 -105 -91 -93 -94 -94 -90 -104 -115 -116 -118 -129 -128 -131 -67 -53 21 29 -53 -70 -109 -152 -187 -190 -192 -181 -191 -277 146 833 680 177 60 -145 -195 -238 -238 -238 
#avR[uV]
-2759 -2640 -2153 -2030 -1589 -1501 -1012 -899 -451 -146 128 118 130 131 137 129 135 119 68 40 7 14 41 73 142 183 184 189 187 203 186 -98 -579 -305 343 358 192 207 195 167 162 143 135 118 112 76 51 35 -16 -52 -115 -155 -175 -200 -176 -115 -34 7 64 120 126 104 92 125 94 91 92 100 116 98 95 108 127 122 120 128 143 87 49 21 -14 0 34 80 136 164 155 181 168 202 193 -123 -614 -287 311 335 201 209 201 165 175 156 149 145 123 101 70 33 10 -44 -93 -128 -164 -204 -213 -146 -66 35 61 86 121 131 115 121 115 124 124 120 122 127 133 133 128 155 172 169 128 94 75 41 28 46 69 163 173 177 229 186 217 186 78 -349 -651 171 524 338 256 204 206 174 180 139 158 161 132 108 93 59 17 -68 -103 -146 -185 -152 -133 -62 26 128 178 177 182 192 189 202 171 169 183 197 211 224 220 236 235 219 187 164 131 140 112 185 247 256 291 308 315 308 351 330 83 -369 -241 466 613 468 382 381 379 369 380 342 379 382 345 352 290 252 228 155 104 107 103 135 226 274 371 421 440 477 491 490 484 510 492 498 529 525 549 558 551 534 552 559 540 507 495 464 459 496 553 594 656 639 645 666 677 663 333 -113 217 799 815 692 672 678 644 670 649 631 602 595 603 575 543 506 487 418 361 351 345 382 444 534 585 663 666 658 679 670 674 682 667 661 668 651 679 657 656 662 662 630 640 609 576 566 514 555 582 628 667 625 642 607 656 584 479 40 -211 631 855 632 620 568 585 548 524 541 504 470 470 453 402 349 306 271 193 174 121 115 183 241 328 364 393 414 428 455 417 422 393 399 399 389 380 380 372 348 348 310 317 329 281 266 250 206 179 199 189 261 310 318 305 319 299 262 268 -42 -540 -72 447 367 286 251 228 190 174 154 148 118 122 122 65 41 -22 -50 -112 -178 -170 -228 -246 -154 -84 -14 16 80 72 79 120 69 65 81 54 35 36 27 0 11 -19 -4 17 17 14 14 25 0 -46 -69 -109 -148 -168 -137 -93 -12 2 -10 2 -13 10 -36 -300 -830 -631 103 82 -52 -46 -39 -83 -64 -89 -97 -105 -159 -162 -229 -255 -275 -378 -384 -428 -479 -482 -482 -447 -365 -282 -239 -214 -196 -209 -215 -203 -197 -189 -212 -218 -229 -216 -210 -240 -232 -254 -279 -278 -273 -283 -297 -298 -323 -342 -335 -335 -381 -396 -402 -442 -450 -435 -396 -335 -296 -307 -245 -326 -257 -319 -481 -662 -819 -235 -86 -304 -283 -321 -316 -345 -334 -344 -376 -389 -397 -432 -484 -528 -577 -640 -659 -700 -740 -694 -694 -631 -509 -471 -399 -394 -374 -365 -372 -367 -405 -403 -397 -422 -405 -423 -427 -400 -392 -392 -368 -380 -372 -379 -373 -362 -371 -362 -398 -453 -476 -511 -528 -532 -495 -445 -431 -390 -390 -413 -358 -442 -397 -617 -1193 -618 -110 -260 -332 -381 -352 -391 -403 -403 -443 -432 -447 -511 -512 -595 -580 -658 -688 -673 -756 -679 -752 -641 -579 -588 -470 -449 -402 -425 -396 -422 -416 -406 -411 -417 -410 -395 -395 -422 -409 -403 -392 -416 -418 -410 -401 -431 -423 -389 -391 -423 -435 -502 -508 -500 -537 -509 -440 -403 -361 -391 -318 -406 -300 -433 -549 -584 -940 -370 -155 -374 -307 -348 -340 -348 -356 -371 -369 -408 -407 -435 -458 -487 -533 -618 -638 -657 -673 -629 -655 -591 -491 -438 -367 -355 -330 -338 -332 -335 -330 -349 -330 -369 -342 -331 -356 -323 -325 -322 -323 -333 -296 -295 -302 -296 -292 -310 -310 -358 -380 -393 -435 -404 -362 -321 -249 -271 -233 -249 -221 -239 -223 -560 -1001 -538 -13 -104 -196 -217 -203 -236 -216 -256 -248 -286 -257 -298 -328 -340 -362 -414 -469 -529 -559 -591 -566 -502 -433 -342 -272 -247 -213 -222 -201 -219 -209 -193 -203 -213 -211 -203 -191 -209 -193 -183 -187 -165 -167 -158 -167 -161 -172 -150 -195 -215 -237 -266 -278 -261 -186 -137 -119 -119 -92 -133 -80 -123 -258 -684 -767 -60 182 5 -64 -126 -79 -126 -118 -138 -146 -161 -177 -209 -216 -257 -297 -351 -408 -449 -480 -501 -428 -371 -300 -218 -184 -146 -128 -104 -109 -97 -115 -127 -115 -136 -133 -110 -108 -122 -108 -109 -107 -102 -99 -113 -144 -179 -194 -192 -221 -208 -159 -106 -87 -74 -41 -93 -38 -104 -244 -678 -696 23 182 21 -16 -80 -73 -112 -81 -102 -118 -121 -122 -173 -191 -226 -267 -311 -378 -424 -426 -439 -378 -217 -221 -148 -92 -67 -72 -58 -50 -73 -72 -82 -72 -65 -66 -59 -27 -72 -60 -35 -58 -30 -54 -105 -136 -165 -177 -169 -90 -30 -18 -11 23 -8 32 -19 -84 -493 -734 40 278 70 49 -31 2 -11 -33 -43 -47 -74 -56 -95 -108 -148 -195 -231 -274 -310 -349 -373 -326 -257 -172 -117 -46 -5 -16 -3 19 -14 0 -32 -4 15 -12 8 5 3 -2 0 -3 -51 -74 -140 -124 -114 -75 -18 20 45 62 52 66 50 4 -310 -692 -226 262 166 60 28 74 29 27 27 1 -3 4 -29 -53 -101 -120 -167 -209 -246 -275 -305 -286 -203 -152 -91 -13 29 37 60 52 35 64 37 46 34 49 42 47 51 48 41 6 -33 -55 -55 -26 22 91 101 124 167 115 156 143 46 -338 -672 97 431 188 182 162 165 157 149 181 135 134 124 85 72 61 3 -30 -82 -120 -119 -119 -84 -15 69 124 164 193 201 232 223 212 226 222 207 238 216 222 234 226 206 181 189 135 132 163 196 290 320 317 341 322 393 324 254 -180 -530 244 615 397 415 353 362 358 362 332 321 334 307 291 290 234 212 170 109 67 69 69 88 165 249 318 346 364 371 388 386 386 378 391 392 378 385 391 380 402 403 394 360 313 308 283 291 334 400 447 440 467 470 476 447 412 39 -396 162 693 550 487 441 477 459 460 451 427 408 383 384 363 309 283 228 170 145 112 124 97 178 237 312 389 405 414 431 414 402 395 377 392 400 384 392 367 410 403 386 415 399 391 364 326 288 276 293 328 387 418 404 445 411 450 435 299 -175 -396 407 655 472 437 374 412 387 370 346 342 316 300 262 235 217 171 131 72 27 11 8 25 94 181 215 255 299 290 325 286 309 297 279 291 269 294 297 292 304 291 285 294 300 256 250 219 179 152 171 224 274 286 309 338 286 338 295 174 -266 -407 345 569 398 324 285 316 242 238 247 216 189 174 164 124 105 69 12 -49 -95 -122 -134 -97 -18 53 119 199 195 186 212 216 209 197 199 198 209 187 185 204 202 207 205 196 140 128 113 68 80 135 183 214 225 233 238 269 211 182 -185 -489 123 434 324 257 182 205 205 205 162 162 144 122 111 92 66 11 -48 -67 -137 -160 -171 -114 -44 -6 79 142 153 167 182 180 168 173 167 160 146 155 153 143 148 149 159 172 147 91 74 34 13 19 77 148 152 181 185 157 189 152 89 -244 -614 41 434 249 187 114 157 112 133 100 84 91 77 55 5 -18 -43 -98 -158 -205 -213 -217 -227 -129 -66 0 63 62 92 103 101 98 74 67 60 67 55 75 89 50 63 70 79 76 67 60 -1 -48 -79 -69 -40 4 69 58 87 113 49 123 48 -67 -470 -718 68 297 75 67 37 73 29 20 13 -19 -19 -42 -66 -82 -108 -155 -198 -274 -296 -338 -319 -270 -223 -146 -70 -40 -3 -1 22 9 10 12 -5 0 3 -37 -25 -22 -9 -5 -11 -16 -2 11 22 -27 -32 -57 -94 -138 -127 -98 -70 -5 24 24 55 0 70 17 -89 -518 -804 -18 270 55 55 7 30 -20 6 -6 -49 -49 -52 -110 -106 -152 -200 -235 -296 -332 -357 -370 -352 -279 -166 -141 -100 -59 -45 -45 -45 -33 -49 -62 -76 -68 -64 -55 -65 -60 -46 -57 -58 -67 -66 -41 -52 -37 -40 -65 -65 -135 -150 -170 -179 -155 -133 -64 -32 -48 -29 -46 11 -49 -106 -538 -888 -93 211 6 -24 -51 -47 -91 -52 -82 -96 -120 -105 -148 -172 -214 -242 -281 -338 -390 -409 -424 -417 -347 -267 -206 -158 -130 -109 -90 -91 -112 -112 -115 -116 -111 -106 -116 -101 -100 -103 -103 -90 -83 -84 -103 -72 -86 -80 -99 -130 -148 -181 -204 -163 -154 -96 -56 -46 -44 -33 -63 -37 -97 -478 -574 -183 120 103 -19 -25 -21 -49 -41 -68 -80 -96 -112 -132 -150 -152 -209 -238 -314 -373 -390 -399 -358 -336 -261 -181 -108 -84 -49 -33 -34 -19 -36 -46 -36 -31 -31 -58 -46 -28 -31 -32 -21 -30 -23 -37 -7 -28 -79 -98 -133 -129 -132 -81 -7 -13 -1 30 -21 44 -7 -55 -504 -754 2 290 139 75 -10 39 -10 -1 -11 -28 -59 -42 -57 -93 -115 -153 -208 -255 -321 -336 -342 -305 -261 -185 -95 -41 -25 10 10 18 1 19 0 3 9 5 -10 -4 9 13 -1 8 8 23 28 -1 -66 -64 -94 -94 -76 -43 20 38 50 99 38 85 38 -11 -418 -784 -42 314 112 78 36 67 40 30 -1 6 7 -31 -46 -58 -92 -109 -195 -224 -266 -281 -317 -289 -210 -162 -57 -8 6 39 26 51 37 30 48 33 15 30 25 22 47 49 30 58 41 50 25 -8 -9 -51 -96 -64 -25 58 75 103 102 90 94 90 13 -313 -570 -130 264 199 87 85 102 93 75 54 49 44 5 1 -5 -48 -80 -121 -193 -225 -254 -253 -252 -203 -111 -62 38 37 56 86 70 66 54 44 37 62 37 53 37 48 48 35 48 37 55 26 -13 -20 -93 -74 -63 -22 50 99 83 79 62 123 57 -37 -496 -740 62 334 95 97 58 80 54 35 32 21 10 0 -25 -38 -62 -127 -173 -206 -253 -281 -291 -268 -204 -131 -50 -16 12 35 36 51 41 22 25 34 32 6 33 40 38 38 47 38 46 -3 -27 -42 -85 -82 -45 19 50 58 77 80 75 115 80 -266 -689 -314 230 237 137 99 96 81 75 64 46 31 19 18 -18 -48 -83 -115 -164 -216 -268 -286 -256 -202 -126 -60 0 56 59 88 92 93 87 100 91 92 106 73 55 63 87 81 65 74 38 38 -13 -42 -36 7 95 116 122 135 125 143 123 107 -260 -647 -116 321 263 172 108 156 130 121 
#avL[uV]
-5833 -5491 -4671 -4287 -3515 -3112 -2336 -1932 -1158 -948 17 11 24 24 29 27 26 -10 -28 -40 -51 -12 9 42 25 26 42 40 33 55 101 15 -287 -526 -387 -193 -16 51 48 77 71 75 70 79 74 88 91 77 102 101 113 90 91 70 40 10 -24 -22 -23 -43 -29 -18 -11 -26 -27 -26 -26 -40 -39 -19 -22 -22 -24 -29 -11 -29 -25 -39 -78 -63 -67 -39 -30 -8 -5 9 27 30 25 32 87 55 -226 -606 -453 -205 -40 59 44 71 36 53 49 41 52 42 58 73 86 98 100 87 81 74 55 0 -40 -45 -61 -43 -58 -71 -54 -66 -63 -64 -64 -54 -38 -46 -57 -58 -44 -39 -39 -35 -57 -86 -83 -108 -102 -58 -46 -66 -36 -22 -38 -26 -20 31 71 -131 -516 -559 -323 -172 -38 7 33 40 37 66 47 42 48 50 50 69 82 123 141 124 124 87 43 23 -4 -33 -28 -26 -18 -14 -4 20 22 25 31 33 36 48 52 35 37 71 82 44 31 0 47 90 66 55 88 89 114 80 109 188 153 -80 -426 -373 -154 1 130 145 201 185 180 201 183 223 202 188 229 248 278 311 286 275 302 261 212 200 176 152 177 173 185 191 205 203 221 209 217 229 231 225 254 256 262 249 237 254 218 203 251 268 299 282 281 290 305 290 314 352 313 53 -228 -61 134 329 391 379 404 390 450 439 431 437 424 427 435 443 446 486 461 449 438 420 368 339 349 328 353 371 360 361 369 339 369 398 366 374 361 390 392 381 412 416 397 375 348 313 349 379 386 389 385 414 426 416 423 460 450 259 -123 -116 159 297 398 439 431 440 434 418 444 427 427 425 415 425 418 406 420 399 396 366 306 296 287 294 270 269 256 234 249 240 236 223 223 208 220 224 206 228 239 233 220 215 214 188 147 126 103 153 187 170 156 167 174 178 151 226 209 80 -205 -402 -225 -39 91 176 185 204 183 201 177 183 160 151 155 165 181 162 155 170 124 118 99 48 30 28 22 9 4 9 -30 5 -8 -19 -24 -5 -22 -18 -12 -9 4 -8 -29 -35 -42 -28 -60 -50 -86 -119 -126 -128 -76 -69 -59 -70 -79 -69 -66 -83 -75 -13 -119 -347 -530 -514 -330 -138 -83 -82 -51 -72 -60 -77 -83 -54 -71 -50 -69 -59 -25 -50 -65 -70 -99 -135 -160 -167 -190 -190 -195 -204 -181 -175 -196 -195 -211 -200 -198 -182 -205 -201 -194 -195 -174 -169 -170 -180 -167 -163 -167 -154 -158 -159 -159 -185 -212 -242 -257 -218 -189 -197 -209 -210 -201 -204 -197 -191 -162 -228 -445 -713 -631 -435 -290 -181 -196 -161 -183 -179 -178 -189 -181 -180 -173 -160 -157 -140 -134 -155 -162 -158 -217 -225 -249 -287 -289 -295 -287 -286 -301 -280 -308 -282 -284 -278 -265 -269 -258 -256 -272 -268 -266 -278 -272 -272 -276 -270 -291 -279 -293 -304 -321 -317 -341 -338 -291 -290 -281 -254 -264 -241 -246 -246 -238 -190 -436 -623 -455 -602 -541 -295 -274 -221 -229 -225 -219 -201 -223 -216 -212 -211 -178 -203 -181 -192 -226 -196 -269 -241 -295 -317 -266 -283 -307 -305 -276 -290 -276 -267 -289 -277 -283 -281 -280 -281 -266 -251 -262 -260 -256 -236 -257 -243 -238 -241 -267 -266 -243 -290 -298 -308 -341 -272 -242 -234 -251 -220 -232 -219 -254 -211 -205 -233 -458 -779 -578 -422 -332 -181 -205 -150 -179 -148 -157 -161 -159 -159 -154 -141 -154 -131 -117 -121 -151 -150 -213 -189 -213 -215 -219 -232 -213 -207 -203 -198 -210 -205 -203 -196 -185 -187 -210 -178 -202 -180 -190 -179 -176 -184 -180 -166 -178 -166 -167 -179 -213 -208 -251 -232 -191 -173 -166 -161 -153 -140 -156 -142 -160 -70 -271 -468 -428 -509 -409 -168 -145 -89 -91 -74 -79 -71 -73 -76 -76 -73 -67 -55 -55 -37 -35 -28 -48 -81 -123 -129 -146 -152 -142 -132 -131 -129 -127 -140 -113 -130 -109 -119 -114 -119 -102 -93 -101 -91 -93 -93 -86 -82 -74 -80 -71 -94 -105 -114 -139 -87 -66 -73 -77 -45 -30 -31 -27 0 40 32 -179 -563 -495 -276 -129 9 34 53 39 64 62 58 55 67 68 81 71 91 101 122 109 114 99 42 -2 9 -23 -1 4 -3 1 -7 -13 4 11 7 26 34 6 31 38 28 32 30 27 42 49 21 16 -17 -34 3 19 41 47 61 66 66 60 77 137 89 -130 -444 -368 -168 -27 86 107 141 154 133 125 150 118 126 138 155 153 164 169 179 171 163 126 86 -4 34 28 39 38 50 34 40 50 51 53 48 36 56 45 38 81 77 49 78 45 43 21 27 -25 26 57 37 48 76 70 78 67 98 141 122 -124 -475 -364 -132 -37 112 114 142 123 155 145 133 127 129 131 120 124 147 118 117 108 109 77 62 19 21 24 25 23 41 51 28 34 44 40 37 19 49 27 37 47 42 59 37 -7 15 -22 -14 10 40 54 62 72 73 77 70 109 158 -3 -326 -473 -248 -105 38 107 101 106 127 106 121 122 101 105 116 124 127 113 111 116 93 66 47 -2 2 -1 0 -10 12 8 4 1 0 4 0 6 16 2 9 7 18 -9 -33 -40 -53 -44 0 -15 3 17 33 8 27 30 82 82 -180 -560 -539 -262 -109 29 56 63 52 53 55 49 60 44 65 61 54 50 62 50 70 29 17 -14 -36 -40 -56 -48 -41 -44 -29 -43 -38 -50 -63 -58 -63 -50 -45 -59 -45 -64 -74 -111 -114 -89 -75 -53 -59 -49 -25 -15 -25 -35 44 22 -172 -560 -617 -332 -159 -35 8 6 12 10 35 25 18 19 55 16 28 30 44 40 50 34 7 -14 -52 -70 -73 -67 -60 -40 -49 -47 -47 -54 -52 -54 -47 -54 -49 -33 -44 -35 -53 -83 -76 -118 -106 -45 -46 -29 -36 6 -6 6 11 38 85 -29 -391 -586 -377 -179 -23 42 43 87 65 79 71 71 84 82 83 102 100 111 131 108 115 95 67 18 19 0 9 20 3 11 11 9 22 23 24 33 23 28 42 50 27 62 48 45 41 4 14 -15 4 31 47 73 65 78 84 78 88 158 166 -37 -424 -455 -191 -35 105 133 123 143 143 152 144 154 153 177 174 175 171 212 213 196 177 148 114 79 62 56 55 68 65 37 67 49 54 62 52 90 75 67 79 77 85 99 96 85 98 46 43 42 45 65 68 84 95 100 94 100 99 162 169 -59 -451 -378 -163 -33 100 129 149 170 164 142 151 167 166 163 179 172 178 198 205 209 204 172 134 88 70 62 51 84 84 71 79 75 81 78 79 81 94 97 96 110 100 104 109 72 77 66 63 91 103 116 136 150 147 173 141 199 232 54 -290 -344 -106 -31 139 216 222 209 209 225 229 251 227 214 244 225 252 253 254 287 246 230 205 153 143 118 119 123 145 161 137 126 133 127 140 135 145 129 144 174 141 127 167 141 99 98 67 84 132 131 132 166 160 166 161 160 208 206 -27 -329 -351 -130 -7 127 200 184 214 190 206 203 208 218 181 188 201 190 213 191 177 160 132 133 114 84 71 89 106 96 109 90 82 86 81 77 78 82 80 98 108 71 75 86 76 73 38 34 24 14 39 77 65 59 100 77 92 103 98 163 96 -140 -491 -394 -147 -2 109 107 98 152 123 117 126 126 120 128 126 117 114 140 110 109 96 59 32 25 5 0 -8 -1 -4 11 -4 -5 -23 -7 -18 -16 -2 -9 -14 -21 -17 -6 -13 -19 -23 -21 -3 -38 -83 -73 -100 -79 -57 -24 -40 -28 -26 -15 -12 -18 24 16 -198 -583 -554 -286 -156 -3 3 12 38 30 16 48 31 36 56 31 30 54 45 58 35 31 5 -22 -43 -82 -63 -50 -70 -56 -57 -56 -80 -71 -66 -41 -61 -62 -65 -50 -63 -52 -47 -44 -39 -32 -64 -58 -73 -63 -33 -72 -101 -88 -120 -104 -72 -50 -56 -50 -24 -27 -35 -37 25 -10 -172 -530 -613 -329 -170 -30 1 11 28 8 15 24 18 5 18 13 35 35 34 44 33 35 16 -7 -51 -80 -78 -72 -69 -68 -84 -84 -73 -74 -74 -70 -73 -64 -63 -61 -80 -58 -50 -57 -69 -62 -47 -59 -60 -56 -78 -96 -112 -141 -124 -89 -88 -72 -70 -41 -60 -56 -78 -24 -11 -83 -430 -568 -411 -266 -89 -23 -34 8 -3 11 -2 17 5 6 7 8 19 33 49 60 40 37 -19 -31 -57 -71 -88 -81 -81 -89 -89 -86 -72 -71 -76 -69 -69 -50 -60 -61 -39 -57 -61 -35 -49 -21 -45 -49 -86 -74 -103 -79 -54 -40 -44 -13 -6 -12 -6 2 35 47 -113 -446 -542 -316 -222 -32 29 37 45 62 50 54 44 49 40 53 46 84 56 92 80 62 39 7 -8 -43 -72 -59 -49 -57 -58 -51 -42 -59 -32 -30 -53 -24 -25 -23 -17 -23 -13 -7 -7 -13 -24 -40 -64 -66 -99 -87 -50 -19 -22 -14 -6 -10 1 12 44 52 -157 -480 -504 -283 -146 7 32 51 47 74 72 53 50 65 63 70 58 74 75 89 73 71 38 20 -18 -5 -40 -20 -11 -15 -1 -5 -14 -1 -21 4 2 -1 -5 17 -2 5 10 3 3 19 4 -27 -51 -61 -39 4 3 7 13 31 34 56 26 70 94 -68 -377 -528 -316 -176 9 69 71 87 88 99 93 87 90 94 94 112 103 116 145 128 112 93 57 26 2 17 -21 12 10 4 20 13 19 20 15 -1 7 31 11 24 24 48 38 35 16 12 -14 -21 -28 -8 22 33 31 41 50 83 55 52 125 118 -90 -491 -471 -215 -50 78 96 107 102 128 113 121 128 117 121 119 130 133 152 133 157 134 114 84 34 29 18 9 27 16 28 22 24 33 37 26 29 38 43 31 39 47 44 49 33 21 -8 -21 -28 16 25 36 43 56 52 84 36 77 127 65 -264 -465 -349 -175 -12 90 92 127 131 125 110 126 114 134 114 143 136 149 159 172 182 167 108 82 35 28 20 21 32 25 15 32 24 19 25 24 14 41 58 55 44 56 63 61 31 20 -9 0 58 48 34 56 79 74 81 64 82 154 20 -301 -452 -294 -176 23 92 100 113 118 
#avF[uV]
8592 8132 6824 6317 5105 4614 3349 2832 1610 1095 -146 -130 -154 -155 -166 -156 -162 -108 -39 0 43 -1 -50 -115 -168 -210 -227 -230 -220 -259 -288 82 866 832 43 -164 -175 -259 -243 -244 -234 -218 -205 -197 -186 -165 -142 -112 -86 -48 1 65 83 130 136 104 58 15 -41 -76 -96 -85 -80 -99 -67 -64 -65 -60 -76 -79 -73 -85 -103 -93 -108 -98 -118 -48 28 42 81 39 -4 -72 -131 -173 -182 -212 -194 -235 -281 68 841 894 141 -129 -161 -269 -245 -237 -211 -209 -199 -186 -175 -144 -129 -107 -97 -53 -6 40 83 129 158 146 107 9 0 -43 -63 -59 -60 -55 -51 -59 -59 -66 -83 -81 -75 -75 -84 -116 -132 -134 -71 -7 8 67 73 12 -23 -97 -137 -154 -190 -160 -196 -217 -149 480 1168 388 -200 -165 -217 -212 -239 -214 -217 -206 -205 -203 -180 -159 -143 -129 -99 -55 -37 21 60 64 89 38 -22 -95 -150 -150 -164 -177 -184 -223 -193 -194 -214 -231 -247 -273 -272 -272 -273 -291 -269 -208 -163 -139 -160 -275 -314 -312 -379 -397 -429 -389 -460 -519 -236 449 668 -92 -459 -469 -513 -526 -581 -555 -560 -544 -563 -606 -547 -540 -520 -501 -506 -466 -391 -382 -406 -397 -439 -475 -548 -574 -618 -651 -677 -681 -689 -714 -714 -708 -746 -755 -780 -783 -805 -791 -814 -809 -777 -761 -714 -668 -711 -764 -852 -877 -938 -929 -951 -957 -992 -1015 -646 59 10 -737 -950 -1021 -1064 -1058 -1048 -1060 -1099 -1070 -1034 -1033 -1028 -1002 -979 -949 -933 -904 -822 -800 -784 -802 -813 -874 -934 -991 -1020 -1029 -1040 -1031 -1044 -1021 -1036 -1060 -1034 -1026 -1041 -1048 -1048 -1044 -1075 -1047 -1038 -985 -925 -879 -863 -934 -968 -1017 -1052 -1040 -1069 -1024 -1080 -1044 -930 -299 335 -515 -1015 -930 -1018 -1008 -1017 -988 -959 -960 -949 -898 -898 -879 -818 -775 -724 -678 -614 -573 -518 -482 -489 -537 -616 -659 -663 -683 -684 -689 -667 -663 -629 -623 -623 -598 -601 -605 -579 -577 -587 -543 -537 -544 -496 -455 -397 -333 -282 -352 -377 -432 -466 -486 -480 -497 -451 -489 -477 -37 745 475 -222 -327 -377 -428 -413 -395 -357 -356 -326 -302 -282 -273 -220 -207 -159 -111 -43 7 45 110 146 105 53 -14 -39 -89 -76 -88 -90 -74 -56 -61 -29 -30 -13 -9 12 -1 15 12 11 18 28 13 35 50 133 189 236 276 244 206 152 83 76 80 63 97 64 50 419 1177 1161 410 247 191 129 121 135 137 150 175 188 214 233 280 324 335 403 435 493 550 581 617 608 532 472 429 410 401 391 391 400 393 401 413 417 412 421 411 434 428 429 449 448 453 450 460 466 477 500 494 494 567 608 644 699 668 624 593 545 506 508 449 524 448 482 709 1107 1533 867 522 594 465 518 478 528 513 522 565 571 578 605 644 686 718 775 814 863 898 911 920 880 796 760 694 681 661 666 653 675 688 687 675 687 675 681 684 673 660 659 647 652 644 655 643 654 650 655 702 774 794 853 867 823 785 726 685 655 632 660 605 681 588 1054 1816 1073 712 802 628 655 574 621 629 623 644 655 663 723 724 773 783 839 880 900 952 948 993 937 897 854 753 757 708 701 686 699 683 695 689 700 691 675 676 689 661 666 653 673 654 668 644 670 665 657 658 666 726 801 817 842 810 751 675 654 581 624 538 661 512 638 783 1043 1720 948 577 706 488 554 491 528 505 529 530 568 567 589 599 641 664 736 760 809 823 842 845 805 706 657 599 568 537 541 531 545 536 553 526 555 529 542 534 525 506 512 503 510 481 476 469 474 458 478 490 571 589 645 668 596 535 488 411 424 373 406 364 400 294 832 1470 967 523 513 364 363 293 327 291 335 320 360 334 374 401 407 418 470 507 565 587 640 647 626 562 489 425 390 346 353 331 346 350 306 334 323 330 317 311 311 287 284 279 258 260 245 250 236 253 221 290 321 352 406 366 327 260 214 164 150 124 160 79 82 226 864 1330 555 94 124 55 92 26 86 54 76 88 105 109 141 134 185 205 249 285 340 365 402 386 374 290 242 185 142 132 103 117 110 110 115 108 110 98 104 77 83 79 76 77 75 56 63 123 163 212 226 217 189 118 58 25 7 -25 33 -39 -32 155 808 1141 344 -14 5 -69 -26 -68 -42 -51 -22 -32 3 -3 34 35 73 102 141 198 253 263 312 292 221 186 119 53 28 22 23 9 22 21 28 23 29 9 14 -10 -8 -16 -13 -20 -14 10 84 108 190 150 111 52 -18 -58 -59 -102 -58 -130 -121 -38 618 1209 324 -145 -33 -162 -83 -145 -111 -122 -101 -86 -53 -72 -35 -11 24 48 113 156 202 239 295 264 238 150 92 21 -18 -25 -47 -47 -19 -43 -8 -33 -34 -37 -36 -43 -51 -39 -59 -33 58 59 162 138 104 34 -35 -83 -117 -135 -129 -137 -159 -162 313 1018 700 -13 -60 -98 -136 -176 -136 -155 -133 -123 -118 -106 -75 -63 -22 -6 53 98 130 182 239 238 206 149 93 14 -19 -50 -69 -57 -36 -63 -41 -47 -40 -66 -44 -56 -58 -66 -32 27 73 109 99 26 -7 -94 -118 -158 -175 -142 -186 -225 -129 519 1232 441 -169 -78 -212 -219 -228 -210 -202 -237 -185 -194 -169 -150 -134 -115 -54 -31 32 49 89 101 99 52 -29 -68 -116 -152 -156 -203 -180 -174 -175 -159 -149 -175 -165 -176 -174 -181 -142 -106 -77 -21 -43 -87 -142 -230 -271 -291 -325 -296 -357 -369 -276 352 1091 373 -283 -237 -380 -362 -368 -370 -372 -368 -347 -352 -327 -346 -307 -263 -242 -214 -149 -117 -104 -76 -74 -113 -178 -245 -278 -304 -331 -339 -338 -338 -323 -338 -337 -330 -331 -341 -346 -358 -368 -340 -276 -237 -189 -176 -245 -288 -371 -411 -447 -460 -477 -488 -485 -498 -9 788 423 -316 -371 -464 -483 -521 -547 -525 -530 -499 -479 -467 -466 -447 -412 -383 -339 -301 -254 -228 -220 -164 -197 -257 -312 -398 -426 -417 -442 -425 -411 -418 -400 -417 -433 -407 -420 -409 -460 -431 -449 -463 -444 -433 -369 -340 -272 -281 -324 -376 -461 -483 -483 -530 -490 -538 -593 -465 212 820 48 -464 -437 -543 -507 -536 -530 -514 -498 -486 -471 -453 -439 -409 -393 -343 -344 -286 -223 -188 -157 -140 -174 -244 -271 -311 -367 -355 -363 -353 -358 -351 -341 -343 -360 -370 -365 -372 -381 -376 -384 -391 -386 -355 -296 -262 -221 -198 -237 -293 -358 -381 -410 -432 -386 -438 -457 -344 325 859 33 -406 -365 -424 -415 -465 -413 -403 -389 -368 -357 -341 -327 -303 -278 -247 -210 -155 -114 -81 -37 -36 -69 -123 -181 -250 -279 -271 -284 -296 -284 -278 -278 -278 -291 -281 -282 -300 -313 -308 -309 -305 -212 -206 -179 -131 -171 -238 -300 -350 -376 -380 -411 -410 -411 -415 131 779 220 -328 -292 -396 -399 -428 -414 -415 -388 -391 -395 -349 -325 -336 -291 -264 -204 -187 -149 -85 -59 -90 -108 -137 -197 -262 -276 -312 -343 -317 -295 -307 -295 -301 -281 -300 -283 -288 -322 -290 -286 -339 -288 -190 -173 -102 -97 -152 -208 -280 -319 -341 -351 -319 -349 -361 -296 272 943 309 -303 -242 -315 -315 -342 -326 -323 -307 -288 -300 -295 -237 -194 -183 -147 -114 -32 27 52 84 94 15 -18 -70 -153 -169 -189 -212 -192 -181 -160 -149 -137 -145 -137 -156 -187 -159 -135 -145 -165 -152 -141 -99 -32 23 65 29 -37 -70 -128 -158 -165 -206 -152 -222 -212 -28 611 1210 325 -150 -72 -176 -145 -172 -182 -144 -130 -106 -106 -77 -62 -44 -8 41 58 164 187 241 259 237 198 141 71 48 5 6 -33 -5 -4 11 12 18 12 40 34 36 31 23 18 29 21 12 0 30 71 140 168 239 207 156 94 45 4 2 -39 13 -52 -41 73 717 1387 572 15 101 -52 -11 -43 -17 -37 -9 1 18 15 54 74 121 146 189 237 296 325 364 374 322 248 204 151 130 102 102 102 113 120 128 117 129 127 121 115 123 99 104 103 107 99 105 110 110 104 99 137 236 239 290 283 228 184 121 82 72 56 81 25 23 117 710 1419 706 117 163 54 49 36 63 44 67 72 101 100 130 158 178 207 247 294 357 374 408 424 399 348 284 230 199 178 174 176 186 186 189 187 184 170 179 162 181 161 153 147 153 146 151 131 147 136 177 227 260 322 329 252 242 168 127 87 105 89 141 62 108 562 1004 751 291 163 108 48 55 40 45 56 82 79 107 125 142 143 190 204 265 313 350 361 378 368 319 253 197 166 131 123 123 105 108 118 112 100 100 109 106 89 71 90 83 65 73 59 53 77 165 172 237 208 186 121 51 27 7 -18 27 -47 -28 8 617 1200 539 25 83 -42 -18 -77 -35 -60 -39 -26 15 -6 17 39 69 68 152 163 240 273 303 298 269 229 168 101 75 46 47 32 40 39 32 27 44 18 36 28 8 9 14 0 0 -9 -4 41 130 131 194 182 126 63 2 -24 -44 -88 -39 -98 -82 -41 575 1265 547 -30 34 -86 -69 -118 -87 -104 -70 -59 -58 -33 -16 -11 34 35 119 135 192 210 278 268 229 168 97 28 5 -23 -25 -46 -23 -29 -26 -37 -17 -29 -19 -39 -44 -54 -41 -62 -45 -69 -29 36 61 112 135 60 21 -66 -88 -135 -136 -147 -120 -161 -108 381 948 659 52 -22 -97 -154 -174 -181 -164 -154 -142 -131 -95 -96 -88 -64 -22 5 48 97 142 160 195 177 109 45 -16 -49 -66 -91 -90 -79 -73 -64 -52 -61 -45 -84 -49 -72 -72 -84 -87 -72 -72 -39 28 41 121 83 40 -11 -82 -140 -133 -162 -118 -176 -183 -80 586 1231 409 -119 -45 -176 -154 -187 -156 -163 -145 -143 -139 -117 -95 -80 -67 -6 21 72 96 147 177 183 169 102 32 7 -40 -51 -64 -73 -65 -55 -63 -61 -62 -45 -77 -72 -77 -85 -91 -88 -79 -17 36 63 113 65 20 -56 -94 -114 -130 -165 -112 -192 -208 200 954 779 119 -61 -125 -189 -188 -209 -207 -190 -157 -157 -134 -152 -95 -94 -52 -33 5 43 86 119 147 120 91 31 -19 -78 -91 -114 -107 -126 -112 -120 -116 -117 -120 -114 -114 -119 -132 -138 -128 -135 -69 -59 22 43 -22 -56 -130 -172 -202 -210 -206 -207 -205 -261 240 949 568 -27 -86 -195 -201 -256 -244 -239 
