ADC Sampling rate (Hz):
100
Fragment duration (sec):
20
Number of samples exported by each lead:
1999

#I[uV]
1636 1402 1539 1374 1251 957 850 552 438 119 4 26 44 75 112 170 182 220 238 203 152 103 23 -9 -17 -38 -71 -48 -45 -56 -53 -44 -51 -53 -32 -45 -43 -59 -60 -49 -81 -50 -46 -48 -14 3 11 -13 -45 -65 -54 -67 -56 -53 -39 -10 84 156 -293 -546 -306 -107 -29 -22 -6 -21 9 18 23 58 61 96 146 176 216 272 260 257 195 130 70 26 -2 -47 -48 -32 -42 -52 -54 -41 -53 -43 -68 -61 -32 -73 -61 -52 -87 -61 -58 -83 -61 -32 0 3 -21 -43 -54 -56 -99 -53 -72 -21 13 117 152 -419 -548 -254 -83 -44 -42 -16 -25 8 20 21 26 60 93 121 188 219 247 280 254 191 105 55 17 -62 -75 -63 -37 -64 -72 -46 -25 -68 -33 -43 -52 -47 -50 -51 -58 -57 -59 -57 -41 -39 -50 -26 9 -9 -57 -77 -80 -87 -43 -81 -5 48 213 126 -491 -459 -244 -102 -1 -33 -11 4 16 12 38 65 95 154 183 232 273 298 301 263 241 170 78 46 -6 -16 -35 -45 -21 -30 -12 -11 -26 -18 -22 -25 -19 -15 -5 -30 -19 -21 -25 -20 -24 -2 -2 30 39 -2 -49 -55 -29 -66 -52 -47 -23 57 185 -46 -521 -436 -178 -59 -56 -34 -4 -15 -1 29 16 17 60 84 131 166 197 229 216 213 146 86 27 -8 -48 -51 -46 -80 -81 -69 -62 -83 -72 -82 -79 -81 -76 -82 -83 -100 -107 -90 -104 -87 -66 -76 -74 -50 -64 -65 -73 -101 -113 -123 -105 -143 -70 -47 60 107 -418 -544 -302 -149 -54 -88 -56 -23 -22 -13 3 35 38 52 99 148 158 225 231 203 171 106 39 -18 -43 -84 -76 -86 -88 -97 -87 -72 -72 -65 -82 -104 -62 -86 -88 -104 -109 -84 -72 -94 -101 -84 -89 -69 -68 -67 -32 -43 -45 -97 -96 -85 -123 -108 -137 -40 0 75 36 -508 -511 -227 -129 -72 -99 -61 -45 -37 -32 -23 0 15 41 98 119 190 208 200 191 112 100 14 -56 -50 -85 -82 -101 -90 -111 -91 -82 -104 -102 -88 -80 -99 -100 -110 -77 -88 -115 -105 -106 -83 -108 -105 -82 -90 -81 -76 -61 -43 -39 -75 -71 -100 -111 -81 -104 -105 -49 31 175 -184 -532 -440 -212 -118 -79 -61 -55 -41 -26 -15 -4 -18 29 85 111 159 222 234 230 207 164 80 19 -41 -55 -65 -75 -87 -87 -75 -61 -63 -72 -63 -62 -62 -74 -73 -66 -65 -46 -70 -60 -53 -75 -50 -45 -27 -26 -18 -2 8 -14 -62 -75 -41 -60 -48 -70 -13 75 155 -43 -474 -424 -175 -61 -47 -28 9 16 11 28 32 36 67 112 143 181 225 258 252 254 201 152 181 13 -8 -35 -53 -44 -52 -52 -57 -50 -58 -48 -46 -57 -42 -38 -51 -51 -57 -55 -55 -65 -40 -51 -52 -39 -45 -10 -19 26 6 -19 -59 -47 -49 -72 -44 -50 -10 55 152 -73 -460 -346 -99 -32 -29 10 13 30 33 59 55 76 92 132 186 203 241 247 275 246 185 125 57 9 -7 -59 -21 -44 -44 -20 -47 -41 -40 -38 -37 -20 -43 -30 1 -22 -22 -27 -16 -6 -34 -13 -23 -3 -24 -13 23 24 51 43 -24 -21 -23 -15 -14 -31 -20 40 97 186 -196 -483 -262 -60 14 4 27 25 50 76 88 87 101 125 183 219 219 278 306 302 274 232 147 93 48 21 13 9 -12 -10 -5 0 4 -3 3 0 -29 -18 -17 -25 2 -15 -19 -11 -14 -38 -21 0 -1 12 17 23 58 29 -20 -23 -29 -41 -7 -31 48 108 197 39 -456 -407 -115 -23 4 10 22 35 43 60 71 100 127 130 208 239 266 298 317 301 249 170 81 48 -6 -24 -7 -40 -31 -19 -22 -10 -11 -21 -32 -33 -32 -22 -14 -22 1 -7 -34 -16 -12 2 2 1 32 42 25 -31 -42 -9 -46 -32 -30 26 35 170 99 -359 -422 -256 -61 0 -3 36 31 49 42 62 75 102 114 162 221 264 285 311 306 277 195 110 75 37 0 -10 -26 -6 -9 -6 -16 -11 21 -13 -27 17 -3 -17 -21 -12 -5 -12 7 20 10 20 27 12 -13 -27 -29 -30 -34 -44 41 66 173 104 -397 -435 -213 -42 23 -7 23 9 6 51 31 61 91 119 147 179 231 257 249 282 234 173 104 -1 -1 -5 -29 -39 -16 -25 -34 -36 -27 -38 -27 -25 -35 -34 -44 -58 -28 -40 -48 -35 -9 -3 4 5 -3 -39 -66 -56 -75 -54 -74 0 0 101 77 -446 -480 -195 -61 -31 -48 -8 -8 -2 18 27 24 37 88 128 143 190 220 236 206 180 105 79 7 -24 -62 -59 -52 -47 -57 -51 -41 -37 -25 -41 -29 -8 -36 -24 -23 -27 -18 -17 -6 22 19 23 76 53 17 -5 11 -12 9 -4 0 65 165 232 -139 -479 -234 -20 59 87 95 87 104 96 126 149 174 209 251 256 312 354 354 369 339 302 235 170 132 111 105 99 106 99 108 133 84 124 101 98 100 81 116 108 107 116 84 97 114 131 130 142 162 131 66 92 101 50 102 37 126 192 298 187 -354 -356 -76 64 108 87 131 136 146 157 163 197 240 242 291 326 387 410 409 420 340 294 225 175 132 101 83 60 75 75 51 78 80 68 84 85 71 46 50 68 56 45 55 43 56 106 91 139 118 71 55 14 44 53 41 54 90 197 264 -164 -372 -292 -64 55 50 73 96 97 127 118 110 114 184 191 235 279 328 357 362 326 248 196 128 74 27 30 33 -13 -20 -2 -31 -13 -6 -6 4 -21 -10 -23 -53 -4 -27 -30 -29 -35 -33 -22 20 14 6 -36 -44 -26 -72 -39 -57 -9 51 139 154 -403 -499 -245 -105 -36 -66 -18 -19 1 -4 22 36 61 54 102 164 185 211 232 209 154 114 53 6 -53 -57 -67 -94 -81 -86 -84 -85 -100 -92 -95 -80 -109 -103 -79 -89 -91 -100 -123 -98 -98 -93 -75 -61 -49 -75 -86 -122 -131 -102 -113 -139 -111 -76 -8 92 -345 -636 -356 -167 -96 -107 -94 -90 -92 -31 -46 -33 -7 2 52 74 116 175 179 177 152 95 38 -27 -51 -106 -108 -82 -111 -98 -111 -96 -82 -101 -97 -95 -97 -113 -109 -99 -98 -88 -109 -84 -96 -116 -92 -79 -69 -33 -36 -32 -90 -87 -119 -117 -93 -119 -84 -53 61 109 -414 -554 -329 -144 -75 -94 -67 -65 -28 -24 -40 6 34 36 55 143 183 217 217 199 202 145 58 -6 -17 -62 -79 -79 -86 -92 -94 -79 -81 -67 -92 -96 -84 -77 -84 -92 -100 -98 -114 -108 -107 -91 -96 -74 -78 -56 -63 -37 -53 -114 -103 -110 -156 -102 -154 -72 -9 162 60 -560 -505 -260 -145 -47 -113 -59 -36 -27 -24 -19 16 26 38 106 122 181 239 245 226 177 109 59 -9 -51 -47 -79 -103 -106 -92 -69 -72 -69 -80 -92 -72 -63 -83 -71 -76 -87 -106 -84 -94 -94 -76 -87 -62 -37 -23 -40 -65 -108 -82 -77 -110 -78 -89 -42 -7 163 68 -501 -482 -183 -109 -39 -36 -43 -17 4 -22 -8 39 51 65 123 141 183 202 231 207 160 122 40 -9 -36 -82 -79 -115 -83 -86 -86 -64 -88 -119 -92 -64 -81 -92 -102 -83 -78 -92 -105 -82 -81 -84 -101 -79 -70 -70 -15 -41 -80 -107 -116 -86 -118 -88 -121 -48 2 92 -36 -516 -468 -163 -84 -71 -77 -52 -49 -40 -8 16 5 11 57 99 111 154 222 215 181 168 116 55 -35 -66 -73 -78 -67 -90 -77 -63 -75 -89 -65 -65 -71 -88 -96 -66 -82 -69 -68 -72 -84 -86 -82 -62 -36 -66 -50 -33 -5 -39 -45 -68 -71 -61 -97 -73 -84 -46 -24 119 -77 -548 -422 -150 -103 -79 -48 -45 -14 -19 -34 16 15 49 65 95 143 151 208 203 196 157 81 43 -9 -52 -64 -70 -76 -110 -81 -73 -89 -90 -91 -76 -74 -95 -84 -77 -82 -96 -96 -89 -89 -102 -115 -76 -68 -75 -49 -67 -35 -30 -68 -114 -91 -83 -110 -103 -78 -50 39 128 -237 -555 -405 -195 -107 -88 -66 -74 -60 -48 -27 -12 0 43 50 71 123 170 227 206 200 148 66 15 -58 -60 -92 -114 -86 -98 -100 -83 -81 -67 -77 -83 -91 -76 -97 -108 -57 -103 -97 -102 -119 -104 -76 -67 -57 -46 -33 -66 -94 -101 -88 -114 -97 -100 -44 13 146 -56 -525 -473 -236 -127 -65 -62 -33 -38 -21 1 0 23 35 74 109 162 214 245 267 248 248 159 68 9 -2 -65 -51 -41 -53 -52 -72 -61 -34 -48 -49 -38 -38 -49 -58 -64 -38 -49 -54 -54 -43 -49 -30 -30 0 -8 -64 -42 -73 -72 -67 -70 -57 -31 69 162 -161 -476 -344 -123 -28 -53 -2 -6 2 19 -3 32 67 81 106 141 171 223 254 249 239 213 137 81 34 25 -12 -49 -47 -31 -16 -11 -23 -15 -15 -20 -30 -13 -19 -48 -26 -45 -28 -4 -28 -15 0 4 32 45 5 -35 -16 -14 -38 -23 -66 62 97 199 75 -522 -418 -113 -14 8 20 63 35 50 78 80 94 119 136 187 212 285 301 291 324 257 187 172 106 67 37 31 10 31 25 27 35 36 35 53 7 31 26 -5 34 15 22 1 0 12 33 39 73 57 22 2 1 7 -15 3 -24 63 120 233 -12 -465 -361 -99 -18 15 48 67 37 64 64 66 113 135 159 181 240 293 312 311 295 245 188 99 43 25 -4 -25 -34 -20 -5 -19 -19 -3 -13 -11 -23 -39 -2 -30 -29 -27 -45 -22 -24 -1 -5 29 26 2 -10 -43 -34 -54 -46 -62 -16 38 197 108 -458 -489 -208 -70 -16 -21 26 27 37 33 47 75 90 112 142 202 229 285 305 315 274 216 133 61 17 -11 -3 -1 -19 -31 -42 -16 0 -16 -1 15 0 1 3 -1 3 -8 9 12 26 35 52 86 71 30 17 27 1 26 10 23 70 161 233 -105 -400 -262 4 59 75 89 85 117 122 136 142 157 158 201 250 287 338 348 353 339 288 273 189 146 131 88 89 79 87 82 77 94 94 94 92 116 98 105 108 85 82 84 97 110 118 105 137 156 146 120 98 97 90 97 69 91 134 235 296 -187 -397 -188 25 90 105 102 109 149 138 168 173 205 199 225 273 322 340 361 369 326 298 229 167 122 78 72 58 35 49 48 71 55 55 51 30 52 36 23 24 29 21 23 46 54 
#II[uV]
-24658 -22068 -20025 -17064 -15116 -12113 -10148 -7132 -5175 -2156 -174 -154 -120 -56 -7 90 182 259 328 339 312 216 82 9 -52 -86 -141 -124 -119 -118 -110 -116 -106 -117 -105 -113 -112 -139 -151 -140 -155 -131 -48 -12 69 120 64 18 -95 -152 -182 -207 -269 -227 -242 -285 278 1090 655 -281 -295 -277 -278 -251 -259 -228 -219 -196 -159 -135 -116 -62 0 81 168 272 315 345 314 227 149 30 -22 -101 -153 -150 -133 -126 -120 -121 -133 -123 -143 -158 -159 -157 -171 -174 -187 -162 -142 -73 2 67 98 46 -4 -86 -144 -183 -251 -186 -184 -199 -159 500 1295 422 -330 -207 -233 -243 -265 -217 -231 -210 -174 -147 -135 -89 -38 30 126 199 274 372 369 358 255 179 87 -13 -90 -84 -73 -75 -84 -56 -85 -66 -55 -79 -100 -83 -100 -112 -120 -120 -160 -91 -31 4 56 91 44 -10 -130 -190 -208 -234 -211 -266 -256 -151 611 1144 128 -361 -307 -314 -236 -282 -289 -257 -232 -222 -172 -147 -105 -33 -10 93 179 253 278 303 299 201 77 -9 -135 -161 -198 -196 -203 -182 -177 -165 -219 -200 -229 -247 -244 -250 -247 -279 -301 -301 -323 -255 -224 -178 -113 -133 -188 -266 -382 -413 -428 -495 -438 -502 -520 -249 516 842 -294 -685 -514 -568 -544 -552 -525 -525 -508 -456 -451 -426 -378 -339 -255 -157 -84 0 17 63 -2 -98 -216 -299 -377 -400 -424 -446 -447 -425 -428 -416 -453 -428 -449 -451 -458 -451 -478 -496 -510 -483 -508 -456 -370 -359 -272 -230 -319 -348 -475 -523 -565 -567 -554 -579 -579 -539 104 877 83 -674 -569 -588 -571 -594 -588 -535 -523 -489 -472 -425 -408 -353 -288 -204 -142 -17 56 80 55 -10 -120 -230 -290 -364 -386 -396 -399 -387 -374 -357 -353 -352 -380 -390 -372 -387 -364 -374 -404 -392 -379 -400 -413 -385 -343 -237 -223 -131 -117 -188 -246 -330 -370 -384 -460 -420 -478 -407 -277 418 1094 10 -571 -384 -471 -412 -471 -395 -380 -368 -346 -308 -284 -254 -201 -133 -76 63 125 170 195 161 137 5 -120 -153 -216 -242 -254 -230 -230 -209 -175 -213 -212 -214 -222 -222 -245 -244 -234 -222 -236 -222 -247 -224 -238 -235 -212 -143 -83 -47 50 3 -60 -108 -168 -217 -242 -252 -237 -264 -285 124 926 678 -145 -322 -301 -299 -255 -256 -223 -185 -195 -129 -129 -106 -42 43 85 175 275 356 391 428 387 312 203 118 28 6 -25 -26 -27 -14 -12 26 -7 2 -20 -20 -29 -23 -45 -33 -36 -48 -50 -37 -59 -46 48 92 150 216 192 151 95 3 -46 -35 -78 -41 -107 -107 95 840 1266 176 -233 -89 -140 -61 -100 -38 -15 0 19 53 69 122 174 253 315 416 503 566 578 564 498 275 257 207 131 107 96 123 112 118 114 117 115 102 79 105 90 75 54 65 53 36 63 73 34 23 152 192 251 306 278 217 157 51 13 1 -57 20 -58 -61 281 1081 1248 137 -148 -6 -85 -40 -51 -26 -9 17 48 61 85 133 174 253 337 426 465 556 578 528 446 311 214 153 77 91 54 54 67 40 60 63 41 51 43 34 21 38 13 24 7 32 8 -1 10 10 6 110 172 255 253 211 140 46 -22 -36 -59 -47 -62 -75 -103 425 1240 758 -108 -96 -99 -89 -125 -114 -104 -67 -33 1 3 39 52 169 203 272 363 472 494 504 490 383 255 160 78 55 23 12 14 23 13 29 7 18 13 -21 -22 -19 -25 -23 -40 -38 -54 -47 -75 -61 19 65 90 175 149 124 46 -59 -103 -114 -163 -108 -169 -127 38 811 1250 161 -335 -168 -218 -176 -196 -154 -144 -118 -117 -67 -38 6 24 134 178 282 349 411 446 422 335 238 141 42 -23 -29 -76 -58 -58 -39 -24 -38 -47 -89 -71 -58 -77 -74 -95 -70 -91 -114 -107 -66 -9 19 85 120 73 18 -92 -143 -147 -158 -161 -148 -143 -150 559 1147 265 -212 -166 -201 -146 -175 -123 -126 -106 -91 -60 -26 -5 33 96 210 301 361 410 487 490 432 307 222 131 81 29 13 32 32 47 26 35 54 31 15 58 42 6 1 0 3 12 88 115 178 211 147 97 -11 -66 -89 -113 -103 -127 -103 -88 613 1305 303 -243 -102 -142 -94 -160 -93 -118 -101 -41 -60 7 38 77 150 223 313 384 440 509 497 423 321 200 119 66 34 10 48 25 39 25 31 20 11 28 6 3 3 -21 6 -29 22 108 140 226 224 170 110 -13 -89 -113 -128 -102 -138 -121 -67 648 1382 377 -302 -116 -183 -164 -205 -138 -152 -129 -93 -70 -32 -22 37 114 156 242 342 421 448 450 364 276 148 79 8 -13 -19 -27 -22 -5 -7 -2 -7 -20 -26 4 -32 -32 -46 -71 -44 -44 13 83 116 165 149 66 -16 -97 -117 -152 -179 -153 -209 -209 275 1113 840 -176 -259 -207 -255 -201 -221 -205 -192 -184 -143 -132 -119 -33 21 65 134 212 287 352 334 283 209 91 -39 -74 -115 -131 -124 -135 -122 -112 -152 -124 -160 -160 -180 -177 -151 -178 -191 -212 -245 -166 -82 -56 6 5 -17 -118 -232 -250 -268 -343 -308 -380 -320 -191 585 1178 89 -487 -345 -366 -335 -356 -328 -354 -289 -289 -258 -217 -198 -127 -68 -20 87 150 221 232 196 161 49 -67 -133 -218 -291 -286 -260 -284 -274 -274 -304 -309 -270 -296 -298 -328 -340 -311 -321 -343 -323 -273 -247 -162 -124 -156 -193 -306 -354 -454 -443 -458 -432 -467 -498 -26 716 390 -373 -565 -581 -521 -550 -551 -513 -491 -489 -435 -460 -409 -342 -310 -263 -172 -80 -4 40 51 -1 -77 -192 -286 -389 -408 -419 -443 -461 -421 -446 -422 -422 -425 -413 -478 -441 -478 -529 -470 -481 -474 -450 -381 -361 -261 -235 -312 -335 -470 -514 -528 -575 -514 -564 -543 -438 205 937 -28 -695 -523 -601 -534 -581 -509 -500 -478 -471 -421 -385 -361 -323 -227 -145 -64 34 120 120 120 58 -24 -135 -231 -272 -282 -332 -331 -314 -280 -303 -284 -286 -288 -259 -270 -288 -264 -275 -284 -293 -303 -249 -183 -135 -60 -16 -56 -180 -256 -342 -375 -348 -366 -356 -397 -398 119 988 478 -457 -398 -401 -433 -433 -420 -411 -385 -344 -319 -294 -231 -218 -142 -85 5 108 191 233 247 201 116 -30 -88 -184 -186 -186 -198 -187 -167 -164 -135 -159 -135 -134 -146 -161 -145 -145 -144 -144 -154 -144 -122 -141 -20 30 118 141 92 31 -87 -109 -141 -142 -106 -142 -154 -107 522 1306 536 -203 -129 -144 -115 -156 -97 -89 -63 -53 -26 31 69 104 136 263 338 426 493 510 560 520 422 290 232 164 113 117 105 131 131 145 170 145 154 117 150 133 141 104 105 119 104 108 122 100 209 242 278 340 333 292 265 134 113 103 61 99 71 33 365 1038 1061 287 27 25 56 81 56 75 119 158 183 176 227 251 289 369 429 523 646 680 719 693 636 551 426 334 311 241 241 208 245 254 246 249 249 212 249 232 224 224 212 202 174 184 196 172 287 302 368 429 386 346 266 163 153 133 98 127 130 79 468 1139 1027 263 33 102 77 83 106 87 128 143 156 168 239 261 317 361 459 532 617 677 687 660 621 474 375 284 225 182 172 179 177 188 208 173 156 162 192 155 130 122 130 121 128 102 114 93 110 194 238 286 347 336 275 189 93 46 46 -17 50 -52 -1 186 960 1456 255 -180 40 -87 -22 -55 -5 -20 10 53 77 77 121 177 227 281 366 493 557 547 570 502 387 260 162 133 103 86 73 73 102 102 87 105 76 76 64 43 66 55 57 58 31 35 11 11 34 146 182 223 293 246 174 98 37 0 -5 -76 -4 -87 -83 164 1059 1275 119 -198 -21 -136 -97 -113 -71 -66 -32 -42 22 33 79 116 181 223 311 436 474 479 510 413 314 207 115 50 40 18 8 55 71 45 44 28 40 18 8 -1 5 -9 -23 -6 -21 -21 -29 -52 10 70 111 173 218 176 151 55 -33 -48 -55 -94 -52 -93 -109 353 1147 821 -32 -152 -103 -143 -113 -117 -122 -96 -41 -30 -1 22 88 105 180 259 331 430 484 520 502 403 331 182 137 72 22 46 46 44 57 58 70 47 54 31 36 14 13 42 15 -5 2 -19 71 102 155 242 208 161 104 -10 -42 -58 -84 -67 -107 -119 37 794 1201 168 -249 -141 -171 -105 -128 -98 -90 -88 -25 -29 14 39 95 123 201 304 384 445 468 499 432 305 216 138 36 13 16 -6 8 2 6 8 4 4 2 -8 -8 -42 -45 -45 -45 -37 -37 43 88 142 189 159 121 -5 -46 -107 -120 -147 -96 -161 -148 293 1072 916 -54 -192 -107 -174 -188 -150 -135 -137 -102 -100 -53 -30 21 59 108 193 306 371 413 433 422 345 223 128 78 -4 -54 -54 -52 -38 -24 -50 -19 -41 -81 -52 -43 -73 -119 -76 -110 -113 -89 -33 35 63 146 103 66 5 -111 -149 -160 -196 -161 -258 -191 -25 761 1335 100 -346 -168 -267 -234 -235 -178 -196 -165 -136 -123 -97 -65 -33 83 114 220 297 330 402 398 316 231 138 34 -31 -51 -63 -79 -68 -75 -69 -70 -72 -38 -73 -88 -70 -93 -78 -95 -77 -90 -12 37 80 148 143 69 -25 -101 -134 -146 -184 -139 -210 -196 96 963 1159 18 -292 -167 -228 -182 -181 -137 -157 -119 -95 -62 -34 27 35 84 181 274 369 419 440 430 396 269 164 99 18 -10 -8 1 16 12 12 22 23 36 14 -11 36 -2 9 22 7 51 105 144 223 266 188 102 64 -5 -17 -53 -15 -59 -54 4 743 1356 378 -142 -19 -61 -30 -93 -12 0 10 33 70 121 133 183 226 282 378 486 543 583 576 548 435 339 240 159 155 133 101 132 120 147 147 138 128 133 123 113 113 107 69 76 118 167 204 287 317 272 246 115 34 18 -8 -28 -16 -48 -112 400 1195 896 -25 -128 -33 -101 -63 -90 -67 -29 1 -10 12 69 66 82 161 246 320 352 409 431 391 358 193 78 1 -50 -49 -71 -91 -108 -83 -81 -83 -109 -121 -116 -144 -139 -157 -200 -204 -215 -201 -107 -70 -13 17 -49 -82 -197 -269 -322 -333 -388 -343 -385 -382 129 957 465 -420 -468 -431 -451 -447 -514 -450 -408 -382 -353 -335 -345 -272 -244 -171 -98 -51 28 96 57 62 -41 -141 -248 -344 -367 -393 -431 -395 -409 -373 -418 -398 -410 -431 -431 -456 -469 -482 -488 -507 -492 -494 -508 
#III[uV]
-26295 -23471 -21565 -18439 -16367 -13071 -10998 -7684 -5614 -2275 -179 -180 -165 -131 -120 -79 0 39 90 135 159 113 58 19 -34 -47 -69 -76 -74 -61 -56 -71 -54 -63 -73 -68 -68 -80 -91 -91 -74 -80 -1 36 83 116 52 31 -50 -87 -127 -140 -213 -173 -203 -275 194 934 949 264 11 -169 -248 -229 -252 -206 -228 -215 -183 -193 -177 -159 -147 -95 -48 0 55 88 119 97 79 3 -19 -54 -104 -118 -90 -74 -65 -79 -79 -79 -74 -97 -127 -83 -110 -122 -99 -101 -83 10 64 99 97 43 16 -42 -89 -126 -151 -133 -112 -177 -172 383 1142 841 217 46 -149 -198 -222 -201 -206 -218 -194 -168 -162 -150 -131 -90 -61 -19 26 91 115 167 149 124 70 48 -15 -20 -36 -11 -12 -10 -60 2 -21 -35 -48 -36 -49 -60 -62 -63 -101 -33 9 44 106 118 35 -1 -73 -113 -128 -147 -168 -185 -250 -199 397 1017 620 98 -62 -212 -234 -248 -278 -261 -248 -234 -210 -213 -200 -188 -193 -139 -94 -44 -22 40 57 30 0 -55 -128 -145 -162 -151 -181 -151 -164 -154 -193 -181 -206 -221 -225 -234 -242 -248 -282 -280 -298 -234 -199 -176 -110 -163 -227 -264 -332 -358 -399 -428 -386 -455 -496 -306 331 889 226 -248 -336 -509 -487 -518 -520 -509 -506 -485 -467 -443 -438 -424 -387 -324 -281 -229 -198 -150 -148 -184 -244 -290 -329 -349 -378 -365 -366 -355 -366 -333 -381 -346 -369 -369 -381 -368 -395 -396 -403 -393 -404 -369 -303 -282 -197 -179 -255 -282 -401 -421 -451 -443 -448 -435 -509 -491 44 770 501 -130 -267 -439 -516 -506 -532 -511 -501 -476 -475 -461 -447 -405 -387 -352 -301 -242 -174 -122 -116 -116 -160 -212 -247 -280 -309 -309 -311 -290 -287 -284 -281 -287 -297 -285 -310 -300 -276 -269 -294 -307 -307 -305 -311 -301 -253 -168 -155 -63 -85 -145 -200 -232 -274 -299 -336 -311 -341 -366 -277 342 1057 519 -59 -156 -342 -339 -371 -334 -334 -330 -314 -284 -284 -269 -243 -232 -195 -126 -82 -30 4 48 37 -8 -63 -103 -131 -159 -152 -139 -118 -118 -93 -109 -109 -126 -141 -122 -145 -134 -157 -134 -121 -116 -140 -140 -130 -129 -129 -53 -2 29 111 46 -21 -33 -96 -116 -131 -170 -132 -158 -236 93 751 863 386 118 -88 -180 -175 -195 -168 -143 -168 -113 -125 -88 -71 -42 -25 16 53 121 161 220 223 232 183 159 83 71 49 60 60 60 49 90 64 66 42 42 45 50 21 32 10 21 9 15 16 3 94 119 176 235 194 142 110 65 28 5 -18 6 -36 -93 19 684 1309 651 191 85 -78 -14 -71 -47 -31 -11 -9 20 33 54 62 109 134 191 245 313 324 362 345 93 243 215 166 161 140 176 165 176 165 175 163 148 137 147 129 126 105 122 109 92 129 114 86 75 191 238 262 326 251 210 177 110 61 51 14 64 -7 -50 226 928 1322 598 198 93 -52 -11 -62 -39 -40 -15 -10 6 8 41 41 66 133 184 217 281 331 343 320 254 204 160 136 113 98 98 87 88 102 103 79 89 64 77 52 37 35 47 35 48 15 33 23 33 9 135 185 231 229 160 96 70 0 -13 -43 -33 -30 -54 -143 328 1054 954 374 165 -38 -103 -129 -142 -129 -117 -110 -86 -84 -62 -73 -14 -16 52 85 166 191 230 258 235 161 111 57 42 14 25 25 28 13 25 11 14 14 8 -3 -1 0 -26 -24 -18 -42 -33 -36 -39 20 66 77 157 126 65 16 -39 -79 -85 -122 -101 -137 -176 -69 613 1210 617 72 -52 -195 -180 -207 -177 -179 -162 -177 -139 -139 -120 -105 -73 -61 16 50 94 144 172 164 157 93 49 1 -22 -36 -26 -39 -17 -13 -26 -26 -57 -37 -25 -54 -60 -72 -72 -83 -79 -90 -53 -12 16 84 87 30 -6 -61 -100 -138 -112 -128 -118 -170 -185 388 1047 624 209 89 -139 -146 -172 -160 -158 -155 -134 -123 -102 -107 -80 -66 -10 37 75 99 181 213 237 196 147 94 82 39 39 39 42 53 42 46 33 45 42 40 46 23 23 13 8 25 81 94 167 191 120 84 2 -38 -59 -83 -68 -83 -145 -155 440 1200 701 191 111 -99 -118 -153 -117 -128 -107 -93 -92 -53 -52 -42 3 43 81 126 191 227 262 250 217 201 121 71 64 50 64 51 73 62 58 58 38 54 41 37 47 37 34 11 70 143 150 229 220 165 114 25 -23 -57 -52 -47 -63 -120 -67 547 1305 823 177 78 -121 -133 -156 -129 -143 -127 -111 -97 -57 -59 -50 -14 12 51 122 184 241 270 258 197 140 103 70 45 32 20 35 45 34 35 17 20 2 13 3 -7 -22 -43 -26 -26 19 61 96 141 72 13 -34 -91 -129 -140 -189 -148 -210 -274 110 880 979 303 -25 -187 -314 -288 -316 -293 -296 -281 -269 -282 -293 -243 -230 -191 -177 -142 -67 -17 -4 -18 -26 -79 -171 -185 -220 -231 -230 -234 -231 -246 -237 -249 -261 -259 -280 -259 -268 -287 -298 -329 -330 -263 -196 -187 -123 -136 -179 -249 -298 -343 -369 -394 -410 -418 -447 -383 286 990 443 -131 -269 -430 -444 -443 -460 -490 -435 -446 -422 -415 -438 -369 -360 -347 -299 -259 -188 -188 -143 -132 -175 -243 -265 -320 -374 -347 -336 -359 -325 -353 -384 -378 -355 -381 -370 -375 -391 -379 -378 -388 -379 -316 -303 -269 -215 -296 -311 -377 -410 -469 -488 -511 -474 -522 -589 -224 452 555 0 -272 -516 -576 -600 -624 -609 -589 -616 -554 -571 -523 -527 -502 -498 -452 -408 -362 -322 -275 -249 -273 -320 -360 -416 -439 -453 -430 -440 -419 -415 -408 -416 -419 -417 -457 -430 -455 -475 -466 -454 -444 -421 -345 -328 -239 -255 -326 -342 -433 -470 -501 -503 -475 -506 -533 -489 65 782 375 -195 -277 -495 -498 -514 -491 -480 -479 -467 -444 -422 -422 -377 -329 -310 -249 -176 -112 -89 -33 -56 -77 -141 -177 -214 -214 -237 -250 -227 -195 -217 -183 -194 -193 -178 -160 -185 -185 -185 -192 -192 -179 -150 -85 -41 15 44 -7 -105 -170 -220 -244 -245 -252 -216 -285 -321 127 896 824 178 -41 -234 -337 -326 -326 -321 -292 -312 -273 -260 -223 -220 -194 -160 -110 -67 11 56 94 105 78 -2 -37 -78 -78 -104 -86 -89 -55 -67 -53 -57 -38 -38 -48 -48 -35 -46 -46 -56 -45 -60 -26 -25 71 109 187 175 129 63 2 -22 -22 -24 -12 -22 -69 -53 460 1196 950 350 199 0 -39 -61 -29 -24 -35 -29 14 24 35 68 80 119 154 208 275 311 357 374 363 297 250 227 192 196 192 223 225 224 252 212 247 214 234 210 225 197 206 217 218 216 229 192 306 317 356 396 396 329 319 249 216 213 217 202 225 105 374 875 1001 847 533 286 201 129 169 135 156 185 208 196 210 224 250 262 307 342 407 434 493 515 527 492 435 385 359 321 344 314 337 323 319 319 329 304 321 295 307 296 289 290 280 269 291 266 364 390 430 466 410 387 331 272 235 210 208 206 220 122 476 976 959 764 516 285 187 122 142 131 145 139 179 177 200 210 251 238 317 348 415 446 480 500 498 434 385 321 308 262 287 262 264 275 272 262 275 255 256 236 223 225 214 199 220 208 197 175 194 295 317 357 417 351 317 270 201 162 132 101 138 69 46 184 868 1492 771 287 204 -2 48 21 46 29 51 61 61 72 109 120 127 169 211 270 341 366 401 385 331 295 228 206 181 154 164 151 166 177 176 170 141 147 153 140 132 137 126 126 104 119 98 94 96 182 249 274 326 251 214 144 106 72 55 21 68 -3 -37 188 939 1353 668 223 129 -32 -18 -65 -26 -52 -12 -7 5 17 30 50 85 80 159 228 270 283 352 332 271 216 167 115 111 94 119 136 144 134 135 119 116 93 103 82 82 72 72 89 68 68 72 62 86 138 186 223 286 212 182 124 81 42 28 15 50 -14 -58 314 1019 1058 523 253 91 -35 -25 -51 -48 -35 7 -2 11 22 44 55 109 135 160 202 277 320 353 337 316 241 197 165 137 133 145 145 141 140 138 124 138 123 112 111 122 100 119 92 104 100 176 179 223 300 254 195 170 83 58 30 29 29 -7 -75 23 647 1257 694 223 94 -43 -39 -66 -65 -51 -66 -26 -29 -9 4 20 14 38 90 138 177 219 251 273 236 206 141 101 65 57 46 61 74 67 43 53 53 41 30 41 15 18 -7 4 16 16 87 138 173 219 158 130 58 -4 -34 -47 -79 -25 -104 -117 224 909 1077 421 152 15 -145 -134 -147 -128 -139 -122 -97 -86 -97 -59 -46 -32 21 82 116 164 193 208 208 141 93 53 8 -5 -6 -21 -22 -12 -27 -3 -26 -60 -22 -29 -54 -70 -49 -65 -84 -84 -4 51 64 141 71 20 0 -76 -132 -146 -157 -138 -191 -254 -122 561 1259 622 72 -54 -252 -242 -255 -242 -232 -216 -215 -203 -191 -185 -170 -104 -97 -64 -4 38 78 140 128 58 31 -32 -68 -83 -74 -111 -93 -103 -105 -107 -108 -92 -80 -119 -97 -88 -112 -110 -100 -91 -13 25 47 109 70 11 -48 -103 -136 -153 -168 -143 -186 -260 -24 730 1172 484 69 -67 -209 -198 -230 -204 -194 -183 -160 -128 -147 -108 -123 -96 -59 -19 57 108 144 185 207 169 120 73 23 14 25 21 21 32 31 26 37 48 37 28 38 27 38 49 53 73 130 145 228 236 162 100 74 37 17 1 30 2 -37 -34 546 1248 836 347 189 8 -13 -72 -38 -28 -26 0 23 46 43 71 83 79 149 200 238 267 301 331 302 278 222 171 158 134 120 163 163 164 146 154 130 118 124 111 109 109 65 84 109 154 177 252 265 186 175 85 17 -9 -9 -54 -26 -72 -183 238 961 1002 374 133 -37 -161 -139 -179 -152 -147 -121 -147 -129 -87 -92 -119 -89 -40 -18 4 55 92 103 85 4 -67 -129 -138 -138 -150 -179 -190 -160 -176 -178 -204 -214 -233 -242 -244 -266 -285 -286 -299 -298 -217 -188 -118 -119 -205 -229 -317 -367 -419 -424 -485 -412 -477 -517 -105 661 653 -23 -279 -457 -542 -552 -616 -560 -557 -520 -522 -508 -550 -471 -470 -444 -420 -392 -332 -273 -268 -235 -271 -309 -370 -422 -439 -452 -467 -445 -457 -444 -473 -454 -461 -461 -484 -493 -493 -506 -518 -529 -515 -541 -563 
#avR[uV]
11510 10332 9243 7844 6932 5577 4649 3289 2368 1018 85 63 38 -9 -52 -130 -182 -239 -283 -271 -232 -159 -52 0 34 62 106 86 82 87 82 80 79 85 69 79 78 99 106 95 118 91 47 30 -27 -61 -38 -2 70 109 118 137 163 140 141 147 -181 -623 -181 413 300 192 153 136 132 124 104 89 68 38 27 -16 -73 -129 -192 -272 -288 -301 -254 -178 -109 -28 12 74 100 91 88 89 87 81 93 83 106 109 95 115 116 113 137 111 100 78 29 -17 -49 -24 12 64 99 120 175 120 128 110 73 -308 -724 -1 439 230 158 143 153 117 128 101 76 62 54 14 -27 -76 -157 -209 -260 -326 -311 -274 -180 -117 -52 38 83 74 55 69 78 51 55 67 44 61 76 65 75 82 89 89 110 74 36 17 -2 -32 -27 10 93 133 144 161 127 174 130 51 -412 -635 181 410 275 208 118 157 150 126 107 104 67 40 5 -60 -86 -163 -226 -276 -289 -283 -270 -186 -78 -18 70 88 117 121 112 106 95 88 123 109 125 136 131 133 126 155 160 161 174 137 124 90 57 51 74 134 216 234 229 281 245 274 271 95 -350 -397 407 560 346 314 300 293 265 270 254 213 217 204 158 127 61 -4 -56 -114 -117 -138 -71 5 94 154 213 226 235 263 264 247 245 250 263 255 264 266 267 267 280 298 309 286 306 271 218 217 173 140 192 207 274 312 339 345 330 361 325 293 -82 -492 167 609 435 369 312 341 322 279 273 251 234 195 185 150 94 27 -8 -104 -143 -142 -113 -48 40 124 167 224 231 241 244 242 231 215 213 208 231 247 217 236 226 239 256 238 225 247 257 234 216 153 146 99 75 116 146 213 233 235 292 264 307 224 138 -247 -565 248 541 306 300 242 285 228 212 202 189 165 142 119 80 17 -21 -126 -167 -185 -193 -137 -119 -10 88 101 150 162 178 160 171 150 128 159 157 151 151 161 173 177 156 155 175 163 176 154 173 170 147 117 82 62 5 20 50 91 119 158 177 167 171 185 167 -78 -550 -246 338 381 256 208 167 158 139 113 111 72 67 62 6 -64 -98 -167 -249 -295 -310 -317 -276 -196 -111 -38 13 29 50 57 57 45 36 18 40 30 41 41 51 48 55 49 41 59 55 45 67 48 -1 -32 -61 -98 -95 -79 -40 29 61 38 69 45 88 60 -85 -498 -611 148 329 132 101 54 64 14 0 -5 -23 -42 -52 -94 -143 -198 -248 -320 -380 -409 -416 -382 -325 -228 -135 -99 -48 -27 -26 -35 -30 -30 -31 -29 -33 -28 -11 -31 -25 -11 -1 -3 0 9 1 -16 8 14 -56 -73 -120 -143 -152 -112 -68 3 17 24 65 11 54 36 -168 -617 -587 161 247 52 59 35 20 6 -10 -25 -54 -58 -80 -112 -153 -219 -270 -333 -356 -416 -412 -356 -286 -184 -111 -72 -9 -34 -5 -5 -23 3 -9 -11 -1 -6 -11 4 4 -19 4 -1 9 -8 -1 17 1 6 -1 -42 -79 -139 -139 -131 -92 -11 22 29 37 30 47 47 31 -261 -713 -280 295 179 80 37 60 43 39 8 -21 -44 -45 -70 -88 -176 -211 -246 -321 -389 -398 -389 -361 -265 -174 -104 -49 -34 -16 0 -1 -8 -6 -16 -2 -10 -6 25 20 18 25 10 28 28 33 30 57 41 -9 -32 -51 -96 -86 -91 -37 40 63 72 102 58 100 39 -73 -504 -645 147 371 141 121 85 92 66 54 37 28 -2 -30 -67 -77 -171 -209 -274 -324 -364 -374 -336 -252 -159 -95 -18 23 18 58 45 38 31 17 24 34 61 52 45 49 44 58 34 49 74 61 39 3 -11 -43 -76 -57 -22 62 92 78 102 97 89 58 57 -365 -623 47 317 211 131 72 89 43 47 28 24 -1 -24 -48 -73 -129 -216 -283 -323 -360 -397 -384 -313 -209 -148 -84 -40 -9 6 -13 -11 -20 -4 -12 -38 -8 6 -38 -19 5 9 5 0 0 -47 -68 -94 -115 -87 -54 12 47 59 71 69 86 31 10 -393 -705 47 339 158 92 35 84 34 54 47 -5 14 -34 -64 -98 -148 -201 -272 -321 -344 -396 -365 -298 -213 -99 -58 -30 -2 14 -15 0 -2 5 -1 8 8 -1 14 15 20 40 10 35 12 -36 -65 -111 -114 -88 -53 26 78 84 102 78 106 61 34 -374 -729 34 391 155 122 98 127 73 80 65 37 21 4 -7 -62 -121 -149 -216 -281 -328 -327 -315 -234 -177 -77 -27 27 36 35 37 39 28 24 20 16 31 27 1 34 28 35 49 31 31 -3 -52 -67 -94 -112 -59 0 51 53 82 84 79 104 72 -220 -673 -350 327 247 114 98 57 63 58 43 43 8 -8 -27 -88 -136 -160 -223 -283 -320 -360 -337 -292 -222 -130 -46 -18 4 15 9 17 6 -10 33 0 29 31 39 47 17 34 41 48 80 34 -16 -37 -68 -74 -72 -6 83 78 83 146 103 171 97 0 -441 -683 132 421 210 151 113 134 98 109 71 65 47 10 -20 -57 -111 -153 -237 -280 -315 -326 -268 -228 -137 -54 0 58 103 112 92 104 111 97 111 120 93 105 113 140 144 121 132 148 133 115 95 28 16 8 37 117 149 220 199 202 195 206 204 -85 -490 -113 372 428 322 232 249 238 208 197 181 158 174 147 78 59 14 -53 -123 -176 -201 -188 -123 -59 31 106 180 189 193 228 241 212 238 218 214 215 204 249 225 250 291 237 254 252 239 208 197 142 107 149 164 253 279 277 323 277 311 276 193 -172 -545 215 597 384 353 285 324 263 259 238 238 199 174 150 134 62 -9 -60 -123 -176 -164 -137 -86 -14 64 142 165 175 213 206 200 182 194 192 189 192 169 189 195 171 182 187 197 213 173 141 114 68 39 52 127 171 232 253 225 239 247 254 237 -55 -540 -66 547 377 284 265 270 257 250 239 187 182 164 119 107 44 5 -60 -141 -185 -205 -199 -148 -77 28 70 145 147 134 155 143 139 130 109 130 116 115 121 137 127 122 121 116 132 114 109 128 56 24 -24 -54 -27 0 88 98 130 129 100 130 119 80 -292 -708 -60 378 229 144 95 125 82 77 46 38 33 -18 -52 -70 -95 -203 -260 -321 -355 -355 -381 -332 -240 -142 -107 -50 -17 -18 -9 -19 -18 -32 -44 -38 -30 -10 -33 -27 -28 -6 -2 -10 5 0 -7 -4 -56 -84 -99 -141 -135 -127 -105 -9 -4 3 47 1 41 19 -177 -600 -561 136 239 117 44 -16 28 -8 -41 -65 -79 -78 -122 -139 -163 -237 -276 -352 -443 -462 -473 -435 -372 -305 -208 -141 -131 -81 -68 -51 -76 -92 -87 -89 -84 -60 -88 -84 -70 -76 -68 -57 -34 -50 -51 -39 -105 -107 -152 -195 -181 -153 -100 -27 -35 -28 6 -24 -20 -18 -230 -651 -547 118 224 40 15 -21 -34 -21 -55 -73 -67 -79 -139 -156 -191 -242 -300 -358 -409 -454 -447 -410 -372 -257 -183 -123 -71 -51 -28 -47 -45 -51 -71 -42 -18 -35 -63 -37 -18 -9 -23 -21 -18 1 -16 -6 -12 -46 -79 -108 -138 -160 -116 -54 7 34 20 67 19 87 25 -94 -526 -709 130 324 61 85 47 66 28 35 15 -22 -46 -41 -66 -117 -163 -196 -260 -358 -386 -364 -369 -309 -221 -112 -47 -29 -12 -9 8 2 -19 -13 1 -19 -5 -2 11 26 0 13 6 4 20 24 37 35 13 -55 -57 -86 -130 -120 -67 -26 15 35 33 86 38 86 64 -70 -589 -599 214 310 85 119 88 81 58 40 25 38 -19 -24 -64 -90 -138 -183 -231 -322 -339 -338 -333 -247 -178 -98 -31 7 14 28 51 13 0 22 23 31 17 27 43 42 35 46 59 51 55 55 65 83 33 0 -17 -62 -75 -70 -60 6 73 69 69 102 78 86 80 -196 -637 -291 293 279 149 125 100 92 98 78 44 28 7 -11 -65 -77 -125 -191 -251 -328 -345 -360 -325 -235 -173 -62 -38 10 45 19 25 28 12 11 -1 15 14 30 19 41 47 7 43 51 50 69 16 -12 -43 -92 -81 -64 -18 52 72 73 99 82 103 82 -25 -470 -572 178 361 188 149 85 95 65 64 54 11 14 -19 -37 -84 -116 -182 -259 -314 -356 -358 -373 -295 -187 -112 -67 14 18 12 30 21 34 27 12 21 22 18 23 29 50 54 41 47 46 46 0 -19 -56 -79 -79 -56 35 44 90 96 107 83 109 90 -181 -617 -377 265 268 115 101 121 76 71 67 41 52 10 -18 -51 -83 -124 -182 -265 -312 -331 -336 -317 -241 -152 -81 -51 8 52 51 42 27 18 36 17 28 51 41 28 46 83 51 78 71 47 31 -10 -31 -75 -68 -56 -5 73 83 87 117 92 162 64 -36 -480 -705 210 382 141 141 112 107 57 80 57 29 21 1 -26 -51 -135 -163 -252 -299 -310 -363 -328 -251 -202 -122 -51 -2 9 26 23 21 23 17 16 18 -7 33 28 21 49 22 39 27 44 6 -24 -56 -94 -108 -63 1 49 66 69 99 67 117 66 -108 -598 -573 223 327 133 123 83 66 35 60 27 15 -2 -39 -81 -97 -133 -211 -283 -341 -365 -367 -337 -292 -184 -103 -62 -7 18 21 9 -5 3 3 -9 -5 -12 4 25 -17 16 10 2 18 -14 -40 -71 -108 -148 -107 -52 -27 24 25 53 31 60 35 -21 -470 -732 39 315 114 65 23 57 -6 -13 -23 -33 -58 -98 -111 -147 -184 -242 -304 -385 -424 -449 -425 -382 -284 -200 -129 -73 -76 -66 -40 -50 -38 -65 -74 -61 -63 -74 -61 -57 -58 -52 -36 -33 -64 -90 -115 -161 -185 -179 -159 -73 -26 -23 3 0 2 12 21 -281 -714 -395 212 195 14 20 -5 0 -9 -43 -61 -62 -77 -113 -112 -141 -205 -267 -329 -350 -381 -385 -339 -315 -191 -112 -66 -18 -20 -4 2 13 2 -6 -5 7 14 0 23 16 24 57 60 65 51 -1 -24 -45 -77 -53 -31 38 85 112 121 145 136 146 123 -182 -627 -138 409 328 202 180 171 206 170 129 122 92 81 69 36 9 -50 -112 -144 -195 -233 -192 -180 -93 -12 62 133 147 167 197 173 180 151 181 171 179 200 189 209 223 229 229 242 234 224 226 
#avL[uV]
13966 12437 11552 9906 8809 7014 5924 4118 3026 1197 91 103 104 103 116 124 91 90 74 33 -3 -5 -17 -14 8 4 0 13 14 2 1 13 1 4 20 11 12 10 15 20 -3 14 -22 -42 -49 -56 -20 -22 2 10 36 36 78 60 81 132 -54 -389 -621 -405 -158 31 109 103 123 92 119 116 103 125 119 127 147 135 132 136 102 84 37 16 -4 11 8 3 27 43 24 10 5 19 13 18 2 18 47 4 24 34 5 19 12 -47 -62 -66 -48 -20 -18 0 17 35 25 40 20 78 92 -133 -494 -630 -382 -150 32 77 90 92 90 113 107 95 94 105 112 106 125 119 110 94 69 11 -21 -34 -26 -55 -29 -21 0 -26 -29 -17 17 -35 -5 -3 -1 -5 0 4 1 3 21 -11 -25 -41 -78 -72 -13 -4 7 17 23 30 62 52 122 123 -91 -445 -556 -279 -90 54 116 107 133 133 132 123 124 139 148 171 188 186 184 171 161 111 91 70 39 50 60 64 63 53 79 60 75 71 83 81 92 98 103 109 118 108 131 129 136 106 87 87 54 96 133 131 141 151 185 181 166 203 236 182 -72 -468 -374 -94 78 225 215 242 257 247 252 257 241 230 249 254 259 245 239 229 207 181 147 135 136 140 140 149 165 142 142 142 151 125 154 132 145 144 152 142 156 147 147 151 149 141 118 103 61 64 95 108 164 159 169 159 171 146 219 222 7 -331 -460 -206 -17 145 231 209 237 243 239 231 239 248 242 228 243 250 230 234 202 163 144 111 100 96 101 98 116 111 111 96 100 105 104 110 107 90 123 106 93 82 92 111 117 105 105 108 81 49 43 -2 26 50 77 67 89 106 106 101 102 163 138 -133 -510 -514 -225 -35 106 133 135 136 144 146 141 130 142 142 142 165 157 158 145 115 93 32 31 11 3 26 23 38 25 24 3 13 5 2 3 18 30 11 22 12 39 23 2 5 17 28 11 12 23 -18 -39 -52 -86 -44 -9 -20 12 8 9 44 13 26 93 -30 -287 -524 -459 -279 -62 30 47 67 56 51 70 49 60 34 50 64 68 71 84 56 34 -6 -29 -76 -81 -100 -69 -68 -62 -73 -74 -68 -55 -77 -68 -65 -52 -52 -60 -62 -44 -49 -28 -45 -34 -34 -45 -27 -70 -73 -101 -127 -98 -67 -62 -64 -52 -23 -21 -27 -16 39 27 -264 -676 -563 -308 -130 8 -16 21 28 24 11 18 6 1 6 25 17 23 17 6 -30 -34 -80 -96 44 -115 -111 -100 -107 -92 -114 -108 -116 -108 -116 -105 -97 -97 -94 -84 -88 -78 -90 -82 -73 -97 -77 -68 -63 -115 -141 -136 -172 -112 -102 -98 -85 -54 -50 -43 -54 -21 19 -85 -388 -698 -529 -272 -96 9 -9 36 26 35 24 35 24 34 25 45 59 35 28 14 -2 -42 -79 -97 -98 -97 -84 -97 -67 -71 -71 -54 -67 -72 -72 -58 -63 -42 -60 -41 -17 -29 -35 -31 -32 -10 -33 -18 -28 -6 -80 -99 -104 -102 -54 -26 -47 -10 -5 14 9 0 17 91 -115 -434 -575 -429 -214 -11 59 67 85 77 83 93 87 86 82 99 99 117 83 96 69 55 21 -12 -43 -34 -31 -18 -14 -2 -18 -18 -17 -6 -10 -7 -5 -7 -18 -7 -8 -13 14 4 0 15 9 -1 9 -10 -33 -32 -70 -51 -3 6 9 27 27 40 46 52 112 88 -208 -585 -537 -240 -31 85 92 109 99 107 102 118 105 119 123 117 140 150 124 124 111 78 38 3 -38 -22 -27 -12 7 -1 -2 10 -2 1 7 2 12 1 -3 16 23 25 37 37 22 37 20 7 -7 -41 -27 5 15 14 29 64 32 48 43 98 110 -109 -474 -492 -315 -173 38 73 84 98 95 102 88 93 88 105 97 114 116 113 104 105 62 31 -21 -43 -36 -28 -41 -25 -33 -23 -26 -30 -29 -29 -5 -29 -34 -11 -25 -20 -22 -13 -6 -19 -37 -37 -78 -85 -46 -35 -8 5 15 26 16 19 93 111 -133 -548 -549 -313 -162 28 71 72 70 68 56 72 62 57 71 81 71 68 75 65 28 27 -13 -38 -56 -101 -61 -38 -46 -45 -40 -38 -53 -49 -43 -48 -33 -40 -38 -35 -46 -48 -31 -25 -59 -89 -80 -116 -107 -79 -59 -32 -21 0 -11 -3 -5 59 33 -223 -614 -635 -329 -136 30 51 54 60 67 62 64 62 41 48 69 71 65 69 48 25 -17 -45 -76 -59 -66 -64 -66 -52 -42 -33 -46 -48 -38 -36 -21 -30 -15 -10 -20 -8 0 8 3 4 -12 -19 -38 -58 1 20 25 42 70 64 99 71 105 170 27 -323 -559 -391 -104 83 187 187 205 190 200 189 198 215 233 226 240 224 245 248 211 193 171 160 130 124 152 148 162 165 168 166 169 190 160 187 181 178 190 170 192 197 202 222 207 180 155 159 127 139 170 190 182 218 235 222 256 228 286 287 5 -401 -398 -112 96 247 276 265 295 313 290 302 292 306 339 306 326 337 343 334 298 304 242 213 200 209 199 210 229 204 206 217 188 216 232 223 219 233 221 210 221 223 217 217 217 179 180 188 153 217 214 224 233 242 266 282 258 288 340 211 -93 -359 -186 -10 225 316 325 349 353 343 372 336 340 318 356 346 367 366 368 360 342 300 248 235 224 217 221 234 243 208 209 208 192 197 204 206 211 217 210 216 211 231 213 206 195 155 147 108 138 170 174 198 212 237 215 217 224 262 270 36 -313 -389 -151 15 194 230 223 236 230 240 231 233 229 241 215 215 237 217 194 172 149 93 85 65 73 62 78 73 71 84 70 55 65 41 51 49 49 25 40 53 47 50 45 27 25 -6 -26 -45 -53 -20 15 41 48 56 71 69 38 87 122 -68 -401 -584 -407 -157 33 120 109 115 115 99 140 113 113 107 111 123 117 113 121 83 60 28 -4 -19 -12 -7 -14 -15 10 -12 -4 -27 -14 -14 -21 -29 -28 -24 -32 -37 -26 -25 -15 -31 -12 -35 -45 -81 -94 -128 -104 -83 -48 -46 -32 -48 -46 -40 -48 -7 0 -199 -543 -682 -452 -264 -72 -17 -16 -18 -20 3 2 -27 -9 0 -15 -12 11 14 4 -28 -55 -77 -114 -152 -151 -133 -145 -135 -138 -139 -158 -160 -152 -166 -139 -169 -155 -159 -143 -154 -144 -153 -157 -166 -162 -168 -142 -201 -195 -217 -226 -230 -183 -186 -181 -159 -162 -187 -152 -190 -89 -191 -356 -470 -704 -519 -273 -173 -88 -141 -97 -96 -106 -116 -108 -96 -98 -106 -78 -92 -80 -83 -94 -133 -169 -208 -216 -222 -218 -203 -200 -224 -210 -214 -196 -195 -194 -205 -198 -196 -179 -195 -184 -182 -189 -193 -176 -193 -180 -220 -239 -246 -251 -217 -213 -198 -190 -158 -144 -159 -142 -155 -82 -241 -406 -445 -633 -499 -234 -148 -80 -89 -87 -81 -67 -100 -93 -80 -79 -92 -57 -87 -82 -106 -107 -136 -169 -187 -197 -197 -179 -195 -170 -201 -172 -175 -180 -168 -175 -197 -173 -160 -158 -157 -164 -148 -139 -156 -156 -140 -128 -139 -198 -198 -213 -243 -183 -179 -175 -154 -139 -109 -109 -113 -95 -47 -91 -387 -764 -643 -378 -183 -40 -60 -49 -49 -39 -46 -35 -22 -33 -49 -31 -14 -29 -28 -24 -62 -92 -116 -134 -138 -165 -147 -139 -129 -110 -127 -114 -114 -126 -132 -117 -103 -109 -120 -118 -99 -109 -98 -97 -88 -102 -92 -88 -79 -109 -158 -162 -179 -128 -127 -94 -87 -72 -58 -59 -70 -40 -4 -106 -410 -715 -608 -322 -140 -35 -30 8 -9 19 -3 -13 5 0 9 7 4 31 -3 -10 -33 -43 -97 -125 -114 -113 -109 -89 -90 -85 -114 -108 -108 -111 -113 -105 -96 -84 -99 -83 -80 -77 -84 -92 -78 -78 -87 -89 -81 -103 -131 -136 -176 -123 -106 -96 -97 -66 -55 -63 -76 -32 3 -137 -445 -647 -539 -329 -143 -35 -31 -7 -12 -12 -28 -12 -12 -11 0 -2 -19 -6 5 12 -35 -60 -102 -135 -150 -149 -129 -129 -125 -109 -122 -123 -112 -110 -102 -101 -110 -107 -94 -104 -115 -78 -111 -95 -103 -110 -140 -127 -145 -178 -150 -114 -118 -88 -80 -59 -71 -63 -46 15 -5 -250 -656 -610 -348 -165 -41 -12 1 15 6 22 14 14 16 15 27 47 61 61 53 44 14 -1 -57 -84 -98 -72 -83 -58 -49 -50 -56 -73 -64 -38 -50 -51 -40 -34 -45 -36 -41 -15 -26 -35 -35 -65 -94 -102 -125 -79 -69 -61 -18 -19 -12 6 -22 23 42 -77 -373 -619 -449 -248 -69 58 40 72 61 71 70 46 59 82 70 76 86 75 70 68 42 22 2 -35 -29 -29 -14 -10 -22 -20 -4 2 0 2 -5 5 20 -3 7 17 10 11 9 27 39 -12 -33 -32 -68 -19 12 2 20 57 65 59 57 62 158 109 -181 -592 -572 -245 -29 119 125 138 153 134 133 147 142 142 152 153 145 155 175 152 126 123 58 29 57 37 50 53 57 42 71 59 65 70 72 72 72 43 75 62 41 73 63 61 46 6 -6 -7 -35 1 22 35 52 69 80 76 73 81 161 72 -248 -592 -475 -215 -16 95 107 139 135 116 123 112 97 130 121 141 139 150 156 127 101 75 29 -9 -35 -38 -23 -14 -19 -30 -20 -13 -25 -25 -15 -25 -29 -30 -34 -20 -29 -34 -38 -49 -47 -77 -73 -116 -103 -67 -49 -42 -40 -26 -27 -38 -32 10 36 -174 -570 -647 -418 -199 -39 -1 25 32 28 32 16 11 14 23 20 29 61 40 42 33 24 -13 -57 -84 -108 -102 -91 -80 -67 -70 -97 -102 -90 -73 -85 -65 -51 -62 -54 -52 -55 -31 -46 -50 -70 -75 -108 -106 -49 -51 -27 0 18 5 40 18 47 127 -38 -364 -554 -387 -198 21 110 107 134 119 132 122 141 136 122 125 160 170 164 178 171 148 123 92 93 92 107 130 113 114 115 133 136 119 135 136 149 153 175 170 175 187 185 184 191 198 163 153 111 128 180 187 218 233 258 257 291 240 284 326 170 -182 -420 -186 45 241 316 328 359 335 353 329 345 340 377 335 347 358 371 366 347 321 297 267 250 238 246 250 256 255 251 247 252 257 264 255 256 245 268 265 258 265 274 275 269 293 308 
#avF[uV]
-25477 -22770 -20795 -17751 -15741 -12592 -10573 -7408 -5394 -2216 -177 -167 -142 -94 -64 5 91 149 209 237 235 165 70 14 -43 -66 -105 -100 -96 -89 -83 -94 -80 -90 -89 -90 -90 -109 -121 -116 -115 -106 -24 11 76 118 58 25 -72 -119 -155 -173 -241 -200 -222 -280 236 1012 802 -8 -141 -223 -263 -240 -256 -217 -224 -206 -171 -164 -147 -110 -73 -6 60 136 185 216 217 162 114 16 -21 -77 -128 -134 -112 -100 -93 -100 -106 -101 -109 -128 -143 -120 -140 -148 -143 -131 -112 -31 33 83 98 45 5 -64 -117 -155 -201 -160 -148 -188 -166 441 1218 632 -56 -80 -191 -220 -244 -209 -219 -214 -184 -158 -149 -120 -84 -29 32 89 150 231 242 262 202 151 78 17 -53 -52 -54 -43 -48 -33 -73 -32 -38 -57 -74 -60 -74 -86 -91 -92 -131 -62 -11 24 81 104 40 -5 -101 -151 -168 -191 -190 -226 -253 -175 504 1081 374 -131 -185 -263 -235 -265 -284 -259 -240 -228 -191 -180 -153 -111 -101 -23 42 104 128 171 178 115 38 -32 -131 -153 -180 -174 -192 -166 -170 -159 -206 -191 -218 -234 -235 -242 -245 -264 -292 -291 -310 -244 -211 -177 -111 -148 -207 -265 -357 -386 -414 -462 -412 -478 -508 -278 423 865 -33 -466 -425 -539 -516 -535 -523 -517 -507 -470 -459 -435 -408 -382 -321 -241 -183 -114 -90 -43 -75 -141 -230 -294 -353 -375 -401 -406 -406 -390 -397 -375 -417 -387 -409 -410 -419 -410 -437 -446 -456 -438 -456 -413 -337 -321 -234 -204 -287 -315 -438 -472 -508 -505 -501 -507 -544 -515 74 823 292 -402 -418 -514 -544 -550 -560 -523 -512 -483 -474 -443 -428 -379 -337 -278 -222 -130 -58 -20 -30 -63 -140 -221 -269 -322 -347 -353 -355 -338 -331 -321 -317 -319 -339 -338 -341 -343 -320 -322 -349 -350 -343 -352 -362 -343 -298 -202 -189 -97 -101 -166 -223 -281 -322 -342 -398 -365 -409 -387 -277 380 1076 265 -315 -270 -407 -375 -421 -365 -357 -349 -330 -296 -284 -262 -222 -182 -136 -31 21 70 99 105 87 -1 -92 -128 -173 -201 -203 -185 -174 -164 -134 -161 -161 -170 -182 -172 -195 -189 -195 -178 -178 -169 -194 -182 -184 -182 -171 -98 -43 -9 80 24 -41 -70 -132 -167 -187 -211 -185 -211 -260 108 838 771 120 -102 -194 -239 -215 -226 -195 -164 -181 -121 -127 -97 -57 0 29 96 164 238 276 324 305 272 193 138 55 39 11 16 16 22 18 58 28 34 10 10 8 13 -11 0 -12 -13 -20 -11 -21 -21 71 106 163 225 193 146 103 34 -8 -14 -48 -17 -72 -100 57 762 1288 414 -20 -1 -109 -38 -86 -43 -23 -5 5 36 51 88 118 181 224 303 374 439 451 463 421 184 250 211 148 134 118 150 139 147 140 146 139 125 108 126 110 100 79 94 81 64 96 94 60 49 171 215 257 316 265 214 167 81 37 26 -21 42 -33 -55 254 1005 1285 367 24 43 -68 -25 -56 -32 -24 0 18 33 46 87 107 159 235 305 341 418 454 436 383 282 209 156 106 102 76 76 77 64 81 83 60 70 53 56 36 37 24 36 21 40 12 16 16 22 7 122 178 243 241 185 118 58 -11 -24 -51 -40 -46 -65 -123 376 1147 856 133 34 -68 -96 -127 -128 -117 -92 -71 -42 -40 -11 -10 77 93 162 224 319 342 367 374 309 208 136 68 49 19 19 19 25 13 27 9 16 13 -6 -13 -10 -12 -25 -32 -28 -48 -40 -55 -50 20 66 83 166 137 95 31 -49 -91 -99 -143 -105 -153 -151 -15 712 1230 389 -131 -110 -207 -178 -202 -166 -162 -140 -147 -103 -89 -56 -40 30 58 149 200 252 295 297 249 197 117 45 -10 -26 -56 -42 -48 -28 -19 -32 -36 -73 -54 -42 -65 -67 -83 -71 -87 -96 -98 -59 -10 18 85 104 52 6 -77 -122 -142 -135 -145 -133 -157 -167 474 1097 445 -1 -38 -170 -146 -174 -142 -142 -130 -113 -92 -64 -56 -23 14 100 169 218 254 334 352 335 252 185 113 81 34 26 36 37 50 34 41 43 38 28 49 44 14 12 7 6 19 84 105 172 201 133 90 -4 -52 -74 -98 -86 -105 -124 -122 527 1253 502 -26 4 -121 -106 -157 -105 -123 -104 -67 -76 -22 -6 17 77 133 197 255 315 368 379 336 269 200 120 69 49 30 56 38 56 44 45 39 25 41 23 20 25 7 20 -9 46 125 145 227 222 167 112 5 -56 -85 -90 -75 -101 -121 -67 598 1344 600 -62 -18 -152 -149 -181 -134 -148 -128 -102 -84 -45 -41 -6 50 84 146 232 302 345 360 311 237 144 91 39 15 6 -3 6 19 13 16 5 0 -11 9 -14 -20 -34 -57 -35 -35 16 72 106 153 110 39 -25 -94 -123 -146 -184 -150 -210 -242 193 996 909 63 -142 -197 -285 -244 -268 -249 -244 -232 -206 -207 -206 -138 -104 -63 -21 34 109 167 165 132 91 6 -105 -129 -167 -181 -177 -184 -176 -179 -194 -187 -211 -209 -230 -218 -209 -232 -244 -270 -288 -214 -139 -121 -58 -65 -98 -184 -265 -296 -319 -369 -359 -399 -384 -287 436 1084 266 -309 -307 -398 -389 -400 -394 -422 -362 -368 -340 -316 -318 -248 -214 -184 -106 -54 16 21 26 14 -62 -155 -199 -269 -332 -316 -298 -322 -300 -313 -344 -343 -312 -338 -334 -351 -365 -345 -349 -366 -351 -295 -275 -216 -170 -226 -252 -342 -382 -462 -466 -484 -453 -495 -544 -125 584 473 -186 -418 -548 -548 -575 -587 -561 -540 -553 -495 -515 -466 -434 -406 -381 -312 -244 -183 -140 -112 -125 -175 -256 -323 -402 -423 -436 -437 -450 -420 -430 -415 -419 -422 -415 -467 -435 -467 -502 -468 -467 -459 -435 -363 -345 -250 -245 -319 -339 -451 -492 -514 -539 -494 -535 -538 -464 135 859 173 -445 -400 -548 -516 -548 -500 -490 -478 -469 -433 -404 -392 -350 -278 -228 -156 -71 4 15 43 0 -50 -138 -204 -243 -248 -285 -291 -271 -237 -260 -234 -240 -241 -219 -215 -236 -224 -230 -238 -243 -241 -199 -134 -88 -22 13 -32 -143 -213 -281 -309 -296 -309 -286 -341 -359 123 942 651 -139 -220 -318 -385 -379 -373 -366 -339 -328 -296 -277 -227 -219 -168 -123 -52 20 101 145 171 153 97 -16 -62 -131 -132 -145 -142 -138 -111 -116 -94 -108 -86 -86 -97 -104 -90 -96 -95 -100 -100 -102 -74 -83 25 69 152 158 110 47 -42 -65 -81 -83 -59 -82 -112 -80 491 1251 743 73 34 -72 -77 -108 -63 -57 -49 -41 -6 28 52 86 108 191 246 317 384 411 458 447 392 293 241 195 152 156 148 177 178 185 211 178 200 166 192 171 183 151 155 168 161 162 176 146 258 280 317 368 365 311 292 191 164 158 139 150 148 69 369 956 1031 567 280 155 128 105 113 105 138 171 195 186 219 238 269 316 368 432 526 557 606 604 581 521 430 359 335 281 293 261 291 288 282 284 289 258 285 263 266 260 250 246 227 226 244 219 325 346 399 447 398 366 298 218 194 172 153 167 175 101 472 1058 993 514 274 193 132 102 124 109 137 141 168 172 219 236 284 300 388 440 516 561 583 580 559 454 380 302 266 222 230 220 221 232 240 217 216 208 224 196 176 174 172 160 174 155 156 134 152 244 277 321 382 343 296 229 147 104 89 42 94 8 22 185 914 1474 513 53 122 -44 12 -17 20 4 30 57 69 74 115 148 177 225 289 382 449 457 485 444 359 277 195 169 142 120 119 112 134 139 131 137 109 111 108 91 99 96 91 92 68 77 54 53 65 164 215 249 310 248 194 121 72 36 25 -27 31 -45 -60 176 999 1314 394 12 54 -84 -58 -89 -48 -59 -22 -24 14 25 54 83 133 152 235 332 372 381 431 372 292 211 141 82 75 56 63 95 108 89 89 73 78 56 55 40 44 31 24 41 23 23 21 5 48 104 149 198 252 194 167 89 24 -3 -13 -39 -1 -53 -84 333 1083 939 245 50 -6 -89 -69 -84 -85 -66 -16 -16 5 22 66 80 144 197 245 316 380 420 427 370 324 212 167 118 80 90 96 95 99 99 104 86 96 77 74 63 68 71 67 43 53 40 124 140 189 271 231 178 137 36 7 -14 -27 -18 -57 -97 30 721 1229 431 -12 -23 -107 -72 -97 -81 -71 -77 -25 -29 2 22 57 69 120 197 261 311 343 375 353 271 211 140 68 39 36 19 35 38 37 26 29 28 22 10 16 -13 -13 -26 -20 -10 -10 65 113 158 204 159 125 26 -25 -70 -84 -113 -61 -132 -133 258 991 996 183 -20 -46 -160 -161 -148 -132 -138 -112 -98 -70 -63 -19 6 37 107 194 244 289 313 315 276 182 110 66 1 -29 -30 -37 -30 -18 -38 -11 -34 -71 -37 -36 -63 -94 -63 -88 -98 -86 -18 43 63 144 87 43 2 -93 -141 -153 -176 -150 -225 -223 -73 661 1297 361 -137 -111 -260 -238 -245 -210 -214 -191 -176 -163 -144 -125 -101 -10 8 77 146 184 240 269 222 145 85 1 -50 -67 -69 -95 -80 -89 -87 -88 -90 -65 -76 -104 -84 -90 -95 -103 -88 -90 -13 31 63 129 106 40 -37 -102 -135 -150 -176 -141 -198 -228 35 846 1165 251 -111 -117 -218 -190 -206 -171 -176 -151 -127 -95 -91 -40 -43 -5 61 127 213 264 292 308 301 219 142 86 21 1 8 11 19 22 22 24 30 42 26 8 37 12 23 35 30 62 117 144 225 251 175 101 69 16 0 -26 7 -28 -46 -14 645 1302 607 102 85 -26 -22 -83 -25 -14 -8 16 47 83 88 127 154 181 264 343 391 425 438 440 368 309 231 165 157 134 110 147 141 155 147 146 129 125 124 112 111 108 67 80 114 160 191 269 291 229 210 100 26 4 -8 -41 -21 -60 -148 319 1078 949 174 2 -35 -131 -101 -135 -109 -88 -60 -78 -58 -8 -12 -18 35 103 151 178 232 262 247 221 99 5 -64 -94 -94 -110 -135 -149 -121 -129 -130 -157 -168 -175 -193 -191 -212 -243 -245 -257 -250 -162 -129 -65 -51 -127 -155 -257 -318 -370 -378 -437 -377 -431 -450 11 809 559 -222 -374 -444 -497 -500 -565 -505 -483 -451 -438 -422 -447 -371 -357 -307 -259 -221 -151 -88 -105 -86 -156 -225 -309 -383 -403 -423 -449 -420 -433 -408 -445 -426 -435 -446 -458 -475 -481 -494 -503 -518 -504 -518 -535 
