ADC Sampling rate (Hz):
100
Fragment duration (sec):
20
Number of samples exported by each lead:
1999

#I[uV]
-2920 -2947 -2481 -2374 -1836 -1744 -1227 -1041 -650 -379 -28 -105 -24 -106 -101 34 -42 -106 -62 -40 -8 -76 -85 18 213 515 391 -382 -661 -329 -106 -40 -31 -23 51 57 -30 72 28 -8 91 36 50 53 121 212 139 182 209 333 370 432 540 413 392 319 250 229 49 62 70 -91 -28 5 1 82 -27 -90 -41 50 -13 -63 112 13 -44 14 18 -9 55 80 39 11 35 -2 -3 27 10 34 56 44 -21 58 84 -20 12 86 67 -44 -28 94 29 19 99 53 9 55 -29 22 71 11 91 24 51 129 -4 47 77 73 47 27 -18 74 114 0 109 56 23 46 91 97 89 98 -22 36 -44 35 68 -106 21 16 -14 67 -8 56 240 522 471 -194 -558 -278 37 35 68 65 17 133 90 49 94 105 85 119 106 143 185 172 175 219 350 287 289 430 438 420 361 312 198 87 143 26 -11 8 -106 -46 -56 -76 -9 -21 -115 -75 -26 -70 -29 -69 -84 -67 -60 3 -127 -89 -18 -126 -49 -110 -31 -36 -158 -76 -66 -74 -117 -135 -72 -90 -155 -99 -96 -131 -133 -136 -135 -82 -84 -85 -54 -67 -168 -70 -122 -155 0 -91 -81 -85 -80 -50 -119 -66 -51 -112 -153 -68 32 -53 -137 -1 -91 -171 -79 -80 -38 0 -129 -144 -11 -134 -122 267 440 196 -413 -705 -460 -185 -158 -38 24 -113 0 24 -22 -38 -12 111 4 -14 101 20 122 213 137 264 266 299 407 461 441 303 246 140 169 37 -91 -40 -62 -120 -118 -50 -192 -99 -52 -201 -101 -110 -63 -70 -126 -101 -139 -44 -43 -125 -45 -91 -80 -106 -68 -120 -101 -76 -94 -92 -15 2 -78 -75 -93 -9 -86 -26 -23 -32 1 -15 -41 -17 -50 -106 20 -17 -5 -71 -26 46 -88 4 12 -87 -10 -2 -40 4 -53 42 66 41 65 -52 84 49 -15 -51 -81 42 -59 -13 84 -1 -25 195 397 359 12 -525 -448 6 5 -38 6 -13 9 -35 12 84 81 65 -7 50 64 30 165 110 197 200 134 325 306 386 338 254 294 235 126 20 0 -13 -81 -59 -71 -11 -33 -38 -11 -104 -22 -77 24 -40 -89 43 -1 -32 -116 4 -14 -72 11 -91 -50 14 -85 -19 0 -69 27 -91 -73 -14 -60 1 -40 -76 -26 -12 -44 11 27 -30 -20 6 -81 -22 79 -85 -61 75 41 -32 -78 0 -18 -39 49 31 1 10 -75 40 43 16 31 49 50 16 14 -28 -44 37 -5 -16 -30 -79 -51 -87 143 384 419 -11 -650 -513 -163 -103 -84 -24 17 -13 -15 18 -25 -85 55 -25 61 78 -6 192 122 76 212 208 292 375 325 352 320 331 253 51 80 23 -78 -85 -69 -77 -56 -106 -134 -88 -66 -137 -140 -17 -89 -129 -46 -101 -110 -100 -52 -90 -78 -76 -172 -88 -127 -162 25 -39 -163 -108 -55 -108 -111 -43 -48 -49 -103 -58 -34 -144 -42 50 -74 -100 -56 54 -34 -40 -8 -135 -45 29 -69 -80 2 -10 -70 -73 -89 -88 -4 -6 -82 -98 -52 -75 -58 120 436 423 -212 -688 -528 -200 -76 -59 -67 35 26 -12 40 47 35 39 15 56 144 118 152 203 239 214 267 413 444 383 440 522 330 198 176 175 52 -101 56 9 -114 -64 -2 -53 -94 0 -31 -32 -73 -14 37 -74 -50 -16 -55 -6 -37 -23 -63 -77 10 12 -73 -5 -33 -84 -37 -46 -7 -25 29 12 -16 -15 -70 -16 10 16 -14 -28 -3 36 -24 -27 -16 -1 -16 2 -10 -56 16 23 41 26 0 11 27 -6 -41 91 -2 -77 28 -70 -24 149 54 110 323 529 75 -445 -428 -222 37 50 64 47 77 99 74 65 33 111 127 74 162 183 148 144 219 310 278 326 467 494 432 404 338 241 232 188 0 84 145 -72 91 42 -149 20 27 -9 11 -53 -38 82 -42 -78 22 -88 -27 -27 -39 -43 -64 -52 -9 -38 -137 -83 -61 -3 -88 -44 -42 -114 27 -64 -113 -27 -30 -21 -52 -3 -57 -89 38 20 -70 22 12 -29 -4 3 -23 49 47 18 51 36 -27 10 43 63 -2 -20 109 42 -23 97 85 11 9 -23 30 47 -62 44 73 -16 4 45 86 119 257 511 346 -251 -523 -265 63 0 57 100 64 103 -32 119 175 82 23 68 105 68 203 221 129 167 282 334 322 452 474 413 341 312 321 152 115 47 -6 81 -50 32 33 0 43 0 42 -5 3 69 21 68 75 0 86 45 22 59 -49 8 108 24 7 16 42 38 48 19 17 24 0 45 51 30 67 39 14 22 58 87 108 21 -39 32 67 55 25 41 0 8 88 -11 47 20 -77 101 54 -23 -13 19 63 -17 4 14 -40 18 55 27 92 -52 -20 69 0 3 39 91 89 21 60 109 66 115 76 67 -2 49 112 59 71 44 103 41 -39 0 166 386 559 326 -485 -617 -207 -33 88 42 -42 76 84 41 66 22 54 102 34 59 122 95 191 150 120 317 332 296 354 457 348 340 237 110 237 -24 -38 26 -71 -101 -105 -69 -117 -91 -33 -89 -120 -55 -26 -90 -97 -76 -46 -34 -117 -93 -53 -139 -43 -78 -66 -41 -138 -113 -147 -46 -140 -156 -9 -90 -93 -72 -179 -182 -131 -131 -90 -116 -94 -159 -147 -104 -154 -102 -127 -78 -95 -156 -159 -142 -41 -165 -105 -45 -110 -96 -64 78 -53 -180 -70 -151 -46 -4 -134 -39 -109 -145 -47 -62 -72 91 425 453 -152 -668 -445 -184 -70 -12 18 33 7 57 33 -2 18 83 94 46 74 125 87 122 206 239 236 346 433 437 366 327 367 172 148 92 -18 -109 -115 1 -158 -186 -97 -56 -35 -184 -111 -66 -143 -107 -142 -47 -66 -146 -38 -137 -29 -90 -76 -91 -182 -116 -122 -83 -115 -148 -95 -196 -79 -43 -122 -115 -155 -141 -105 -71 -104 -155 -45 -44 -104 -38 -141 -93 31 -172 -83 11 -93 -33 -77 -45 9 -144 -25 -4 -44 32 -60 -3 -49 -12 61 -7 -27 -51 -72 -54 -16 -116 -108 -58 -126 -88 -56 -3 118 326 389 -267 -646 -373 -222 -94 -76 -158 -93 -73 -98 -91 19 -96 -107 12 -29 -37 -24 80 125 40 123 319 187 230 375 281 294 262 98 36 8 -11 -2 -86 -111 -93 -56 -173 -126 0 -90 -19 28 -112 -145 -101 -47 -70 -71 1 -153 -7 -54 -177 71 -82 -127 -25 -107 -24 -60 -141 -111 -101 -66 -38 -38 -155 -88 -19 -80 -11 -126 -69 -13 -97 -67 -91 -102 -23 -4 -36 -53 -68 -71 -71 2 -67 -22 -30 -64 -34 17 -27 -33 -44 -20 56 -51 -64 -75 -98 -93 -93 12 -32 -109 -58 -102 -29 217 409 310 -484 -668 -247 -192 -51 -57 -48 39 4 0 -53 18 -71 -48 67 111 52 89 90 52 257 213 245 357 275 422 401 302 246 200 138 -21 -19 -50 -137 -165 -108 -174 -145 -54 -99 -141 -180 -106 -175 -123 -100 -156 -83 -159 -143 -189 -167 -106 -139 -149 -136 -126 -185 -210 -119 -105 -108 -200 -170 -94 -226 -151 -59 -135 -105 -158 -187 -88 -171 -125 -122 -102 -47 -95 -57 -119 -133 -75 -119 -120 -4 -81 -142 -103 -142 -132 -140 -112 -75 -79 -6 212 403 27 -623 -725 -395 -204 -78 -46 -69 -75 -125 -127 -67 -18 -103 -32 14 -46 23 0 16 155 112 177 215 241 315 340 320 295 170 102 88 -107 -113 -119 -109 -16 -174 -155 -73 -114 -145 -109 -19 -124 -98 -28 -80 -9 -111 -85 3 -96 -34 -91 -8 -40 -92 -14 -97 33 -79 -103 65 -18 -15 -27 -43 -87 -27 -9 34 27 -33 -8 -6 -3 -16 -15 11 37 63 118 -77 -46 31 -56 -7 -30 23 -62 0 -4 -15 39 185 521 418 -144 -617 -444 -21 24 53 -6 32 124 32 37 135 33 93 106 84 205 172 176 162 246 327 326 417 477 447 403 406 308 279 297 106 -19 56 -19 46 0 -153 51 -16 -45 -26 -64 -113 -96 35 -91 -7 23 -90 -57 -45 -97 -36 65 -54 -37 -7 38 -79 -111 11 16 34 -34 8 -56 -133 -75 -36 5 17 -26 -36 0 -47 -9 -46 -82 16 -68 -49 -12 -82 79 -87 -72 5 -17 -33 -46 67 1 14 -41 66 5 -41 131 8 52 0 -1 10 -9 63 34 1 169 395 505 83 -550 -363 -70 -13 -2 33 88 46 -39 -10 117 116 53 65 51 102 161 131 110 211 282 217 322 413 408 438 409 372 276 173 77 91 60 1 -1 0 21 -53 -58 28 44 -73 -136 0 -28 -71 -44 -25 21 -66 -132 20 -49 -64 -25 -32 -25 24 -41 -60 40 -78 -30 0 -21 24 -129 -34 58 -57 -61 12 -108 -13 -9 -128 -10 -15 -65 -123 -61 10 -95 -92 -44 -28 -54 -114 -99 -57 0 -33 -20 -46 -154 -51 -8 -94 0 -36 -63 87 53 -114 -92 -62 -89 -91 -116 -67 -121 -99 -62 -216 89 352 306 43 -568 -607 -304 -127 -34 -39 -34 13 -19 38 11 -47 19 58 26 85 99 34 92 166 156 215 241 259 349 353 333 308 197 79 88 -7 -93 -108 -117 -46 -56 -130 -87 -99 -156 -61 -101 -59 -65 -133 -82 -68 -87 -113 -117 -160 -91 -54 -178 -29 -120 -221 -48 -163 -89 -88 -154 -136 -107 13 -30 -109 -156 -161 -16 -10 -73 -8 -71 -44 -31 -73 -19 -30 -86 -47 -28 -56 -18 10 -70 -92 10 -90 -94 17 11 -71 -35 -50 -110 33 -41 -77 30 -16 -99 -41 -37 -29 134 439 458 -66 -591 -456 -168 -18 -15 7 39 31 100 67 56 61 63 68 60 109 138 166 174 92 153 193 287 398 432 353 326 290 145 102 110 68 -53 -38 -44 -123 -44 -105 -66 23 -71 -88 -21 -50 -17 -80 -69 -5 -4 19 -27 -40 -74 -8 -95 -29 48 -52 2 -92 -93 -119 -20 24 -106 -15 -15 -60 -26 57 -34 -150 -86 0 -19 32 40 -85 -52 -24 -66 27 -6 -86 24 -2 -29 22 -32 -100 35 -61 0 80 -69 -4 -47 -76 -42 -59 7 29 2 -5 -8 17 5 5 34 -63 24 11 -2 -14 -72 88 46 -66 -33 29 184 371 380 29 -567 -325 -122 -143 31 19 30 -71 22 37 73 73 -22 103 29 44 31 90 223 178 156 209 328 321 272 394 320 245 280 146 87 11 -78 74 -69 -111 19 -138 -90 10 -28 -8 -31 -24 18 -41 -72 30 -111 -82 60 -23 14 
#II[uV]
2082 3232 1588 2840 1182 2460 795 2094 428 1756 19 -19 -42 -89 -86 -80 -74 -91 -80 -80 -67 -45 -104 9 28 601 1091 333 -347 -335 -90 -7 -72 2 33 35 25 44 34 69 85 55 93 118 165 191 175 248 304 377 461 583 594 583 563 458 367 231 129 110 48 -21 -60 -11 -31 -2 -76 -54 -30 -14 -26 -15 23 4 -75 -26 -33 -34 -54 -13 -12 -53 -60 -30 -66 -33 -41 -24 -40 -26 -73 -53 -18 -63 -70 40 -21 -97 -64 -97 -45 -77 -59 -52 -83 -52 -137 -117 -70 -83 -44 -120 -78 -10 -111 -122 -34 -64 -68 -70 -129 -56 -57 -102 7 -48 -21 53 40 67 99 57 -48 3 -46 -62 1 -54 -32 4 -77 -28 -83 -7 69 672 1208 358 -329 -225 -102 -21 -70 -28 -57 9 12 -84 -28 27 -18 -10 58 40 60 129 92 207 262 272 402 431 485 498 468 393 284 213 162 31 -19 -3 -74 -40 -4 -54 -73 -26 -62 -52 -22 -37 -18 -61 -79 -3 -87 -33 -81 -92 -24 -98 -97 -70 -81 -120 -139 -68 -92 -114 -168 -101 -144 -105 -125 -128 -124 -122 -104 -104 -166 -97 -118 -120 -109 -94 -163 -99 -94 -135 -53 -74 -60 -62 -88 -42 -70 -27 48 20 -25 24 85 101 -17 12 -14 -78 -53 -52 -59 0 -63 -105 -31 -115 -94 33 578 992 250 -478 -418 -138 -138 -117 -69 -124 -48 -33 -53 -57 -47 1 -34 -23 53 18 85 173 177 227 309 415 460 530 569 444 409 352 186 89 44 -7 -37 -36 -39 -30 -104 -58 -11 -98 -59 -64 -22 -54 -92 -44 -97 -81 -109 -125 -114 -126 -118 -119 -129 -185 -151 -123 -178 -166 -133 -130 -179 -146 -152 -135 -182 -180 -154 -151 -143 -143 -120 -151 -154 -102 -103 -109 -98 -111 -84 -65 -124 -55 -56 -135 -97 -88 -26 19 -31 35 34 39 42 -53 -16 -40 -93 -133 -133 -132 -166 -84 -50 -98 -112 -100 338 974 592 -297 -433 -187 -145 -142 -80 -132 -111 -105 -104 -81 -27 -45 -111 19 32 35 70 115 194 231 290 342 488 542 491 516 456 381 271 80 31 17 -55 -40 -79 -42 -67 -78 -69 -155 -110 -133 -75 -64 -107 -73 -88 -148 -195 -115 -138 -142 -126 -179 -123 -123 -234 -155 -157 -206 -115 -171 -149 -169 -194 -101 -169 -135 -86 -153 -105 -29 -65 -146 -128 -69 -94 -67 -25 -95 -55 -31 -69 -63 -65 -28 -84 -66 23 2 -54 -4 38 20 71 71 84 74 67 8 -69 -117 -58 -18 -56 -52 -39 -17 -104 -82 38 361 1006 655 -222 -375 -163 -78 -49 -19 9 20 2 32 34 8 116 24 79 138 82 189 219 220 299 330 443 552 528 587 592 507 449 316 176 100 68 -51 -2 -37 -25 -42 -144 -79 -67 -67 -102 -49 -61 -66 -16 -142 -89 -41 -134 -125 -55 -76 -105 -135 -124 -124 -20 -65 -101 -67 -87 -93 -31 27 -51 -66 -28 -36 8 -76 -12 62 -59 -59 0 11 22 3 42 -15 43 105 58 37 112 55 -48 -55 -105 -73 -36 -104 -89 -127 -94 -129 -87 -46 314 988 516 -359 -527 -222 -111 -110 -75 -50 -40 -49 5 -1 -6 74 33 31 90 152 155 196 255 276 382 463 502 503 558 576 430 355 271 188 69 -48 -37 -82 -124 -138 -57 -94 -141 -117 -116 -145 -121 -114 -85 -136 -148 -156 -171 -168 -145 -114 -192 -234 -132 -163 -171 -171 -182 -179 -143 -189 -144 -150 -148 -114 -141 -138 -140 -145 -76 -95 -154 -102 -100 -140 -96 -78 -119 -70 -81 -116 -67 -57 -13 1 48 1 -10 -64 -98 -137 -153 -81 -133 -165 -132 -188 -76 -116 -144 -95 227 960 651 -203 -423 -250 -111 -137 -60 -87 -70 -37 -14 -8 -15 18 24 47 72 123 111 157 209 302 318 444 543 579 554 569 521 365 307 253 12 74 45 -54 -51 -54 -105 -76 -80 -42 -48 -80 -52 -6 -92 -77 -53 -110 -99 -85 -129 -86 -112 -158 -60 -103 -138 -123 -116 -92 -134 -96 -66 -125 -76 -64 -79 -84 -48 -27 -55 -59 -70 -108 -3 -48 -77 -19 -13 -13 -67 -51 -22 -25 -11 -26 -42 -59 -62 -37 -45 -29 23 -111 30 8 13 84 97 -1 -39 -70 -40 -73 -88 -66 -74 -136 -63 -94 -46 10 145 709 974 232 -303 -220 -33 -17 -2 2 61 72 0 69 152 56 58 89 158 148 175 254 242 273 383 462 490 576 605 616 576 435 387 272 141 86 38 13 -26 -37 -10 -49 -7 0 -46 -47 -36 -49 13 -3 -26 -75 0 -24 -58 12 -50 -50 16 -63 -5 -3 -28 23 45 2 28 49 9 6 41 29 26 58 56 3 45 76 74 -3 -29 -1 -17 -5 15 -35 -28 -10 -24 -77 -12 -61 -82 -20 -3 -36 -63 -15 -93 -70 -38 -67 -42 -52 -38 -18 7 -65 -46 -10 -39 -22 9 65 64 34 79 91 102 112 26 28 -24 -34 -2 -30 -6 -20 3 -78 -92 -40 10 194 797 926 -4 -481 -264 -143 -70 -82 -129 -63 -34 -65 -40 -43 -38 6 5 -13 32 57 128 189 163 304 393 389 468 533 531 538 367 282 270 56 34 -14 -51 -32 -79 -40 -68 -64 -16 -71 -104 -6 -24 -62 -24 -64 -101 -67 -66 -82 -91 -123 -104 -138 -165 -96 -141 -149 -144 -156 -143 -121 -153 -118 -131 -155 -184 -215 -182 -144 -121 -157 -90 -140 -142 -123 -142 -101 -113 -83 -71 -117 -109 -73 -66 -116 -35 -18 -44 11 49 49 0 -108 -135 -132 -97 -55 -89 -137 -134 -187 -148 -132 -121 -122 376 1084 472 -389 -474 -262 -139 -103 -93 -115 -60 -16 -67 -57 -25 1 10 -29 46 88 73 184 214 228 319 436 536 604 535 553 480 356 326 182 128 -20 -17 9 -84 -62 -70 12 1 -60 -27 -52 -83 -68 -77 -6 -47 -99 -77 -125 -118 -129 -96 -84 -133 -97 -158 -117 -121 -144 -117 -164 -108 -90 -94 -123 -180 -126 -132 -57 -46 -140 -69 -69 -101 -24 -84 -33 -15 -89 -22 1 -65 -3 -38 -35 11 -37 -19 41 47 69 35 52 56 80 133 67 -35 -37 -60 -44 -9 -125 -116 -54 -135 -73 -41 -14 37 489 1064 422 -318 -283 -145 -25 -57 -69 -57 13 9 -1 64 40 30 80 121 134 102 195 266 231 312 451 403 515 642 641 609 552 395 340 147 122 96 34 -48 -22 -58 -86 -74 -49 -53 -31 6 -49 -112 -58 -77 -56 -79 -61 -138 -60 -83 -174 -48 -112 -154 -103 -120 -28 -74 -92 -74 -76 -98 -37 -23 -67 -51 -34 -76 -20 -23 -30 -5 -65 -51 -5 -26 2 -21 -17 12 -58 -63 -41 6 -1 -65 -9 -82 -11 39 -7 21 21 81 97 -59 -74 -63 -86 -108 -40 -70 -66 -86 -26 -100 -51 116 706 1006 56 -419 -145 -112 1 -33 -2 92 40 22 41 53 28 32 117 134 158 191 167 155 303 367 407 471 527 607 587 537 448 332 281 111 32 25 -64 -117 -25 -75 -48 -80 -69 -50 -111 -59 -28 -65 -82 -20 -23 -111 -60 -113 -62 -10 -75 -37 -29 -76 -31 -41 -32 -20 -29 -16 -72 -51 -54 -21 0 17 -13 -55 -48 1 -51 -22 -49 51 54 -19 60 56 58 61 19 -37 -13 -68 -105 -72 -65 -92 -77 -111 -90 -74 -14 66 690 880 32 -517 -312 -147 -21 -45 38 -44 10 38 18 39 49 90 115 75 177 144 164 242 306 349 454 487 563 563 602 527 449 317 206 52 40 -21 -57 -27 -65 -88 -60 -111 -82 -78 -32 -102 -71 -66 -99 -67 -151 -139 -74 -125 -71 -149 -113 -117 -132 -102 -101 -72 -144 -108 -9 -94 -95 -65 -75 -110 -68 -72 -27 -46 -96 -70 -27 -30 -27 -25 44 61 66 55 -62 -92 -40 -94 -119 -136 -105 -136 -130 -121 -113 -66 -27 428 1009 408 -459 -527 -191 -92 -118 -129 -66 -84 -77 -76 -33 -57 0 13 36 66 91 117 97 212 307 337 440 463 549 563 516 409 370 297 152 22 2 -56 -17 -31 -120 -54 -48 -84 -44 -75 -123 -80 -78 -124 -50 -63 -131 -145 -99 -164 -132 -87 -143 -161 -131 -84 -157 -175 -125 -120 -61 -127 -114 -103 -125 -69 -96 -77 -21 -75 -56 -18 -29 -6 -28 -7 9 -41 -15 23 -9 19 -26 -39 5 5 -16 10 30 73 72 -4 80 -2 -58 -18 -78 -65 -104 -99 -114 -101 -97 -125 -73 -41 292 948 654 -256 -378 -215 -101 -65 -40 -20 -50 -99 -33 76 18 9 47 34 76 139 100 101 248 284 269 366 514 508 530 539 498 397 261 190 114 60 -39 -56 -83 -124 -59 -132 -94 -38 -127 -151 -106 -97 -113 -110 -138 -88 -95 -182 -149 -208 -130 -175 -165 -107 -106 -129 -140 -58 -123 -113 -99 -88 -47 -190 -111 -14 -115 -106 -53 -116 -50 -101 -157 -80 -53 -42 -89 -132 -53 -91 -117 -100 -83 -90 -97 -153 -173 -90 -118 -117 -111 -176 -96 -66 -94 -37 -10 0 16 2 -118 -170 -125 -170 -134 -135 -134 -144 -88 -107 -173 -13 227 779 737 -127 -473 -266 -110 -43 -28 -101 -40 -44 -22 -33 -9 22 12 56 48 90 101 136 185 188 261 339 406 454 456 511 442 304 226 130 31 -32 -54 -84 -165 -108 -122 -134 -146 -135 -81 -131 -128 -97 -114 -153 -86 -59 -117 -108 -115 -88 -92 -138 -57 -96 -144 -92 -115 -79 -137 -76 -110 -127 -13 -93 -121 -147 -136 -49 -69 -119 -124 -99 -97 -143 -124 -110 -169 -130 -164 -137 -93 -130 -132 -118 -87 -33 -86 -81 -4 26 -58 -77 -138 -123 -113 -128 -91 -81 -94 -118 -122 -114 -42 -10 323 980 602 -275 -432 -168 -54 -64 -72 -61 -19 -29 25 21 -12 4 15 17 63 119 138 102 118 248 278 393 485 503 491 446 450 296 188 169 48 -24 -95 -102 -147 -157 -154 -88 -91 -115 -93 -107 -129 -74 -139 -68 -55 -38 -60 -73 -114 -110 -82 -138 -79 -4 -65 -92 -148 -114 -149 -60 -87 -113 -71 -82 -121 -130 -74 -127 -190 -135 -96 -133 -142 -57 -148 -181 -147 -151 -146 -137 -142 -108 -132 -121 -115 -170 -163 -127 -149 -107 -70 -84 -110 -93 -100 -104 -128 -43 10 0 0 45 88 77 3 16 -47 -47 -44 -54 -58 -58 -64 -18 -57 -98 -85 24 356 897 661 -217 -320 -119 -151 -85 -92 -41 -112 -41 -40 6 41 -30 12 -12 -14 46 83 165 186 176 276 404 433 516 527 513 472 439 302 200 124 22 37 -16 -97 -61 -85 -44 -19 -59 -46 -22 -46 -5 -8 -23 -63 -87 -140 -75 -86 -89 
#III[uV]
5003 6179 4070 5215 3018 4205 2022 3135 1078 2136 47 86 -17 16 14 -114 -31 15 -17 -39 -58 30 -18 -8 -184 85 699 715 314 -6 15 33 -40 25 -18 -22 56 -27 6 77 -6 18 42 65 43 -20 36 65 95 43 90 151 53 170 170 138 116 2 80 48 -21 70 -31 -16 -32 -85 -49 35 11 -65 -12 48 -88 -8 -30 -41 -52 -24 -109 -94 -52 -64 -96 -28 -62 -60 -51 -59 -97 -71 -51 -111 -103 -42 -82 -45 -89 -53 -35 -191 -75 -97 -158 -106 -93 -107 -107 -139 -142 -95 -135 -145 -130 -140 -106 -170 -112 -138 -115 -98 -110 -131 -171 -101 -101 -105 -45 7 -50 -29 9 -40 -26 -33 -1 -97 -67 51 -54 -11 -62 -95 -75 -64 -170 150 736 553 229 52 -139 -57 -139 -93 -75 -123 -77 -134 -122 -77 -103 -129 -47 -102 -124 -43 -82 -11 -87 -15 113 1 47 77 107 80 85 126 18 4 -7 -11 32 5 51 22 -64 -4 52 23 4 33 11 7 5 63 -27 -37 45 -2 -5 28 -48 40 -50 -83 19 8 -26 -39 -50 34 -71 -15 30 -28 -28 8 29 32 -30 -15 -33 -34 -55 -26 4 -29 28 19 -53 16 21 23 -7 7 48 39 99 132 128 92 53 155 120 13 76 93 25 27 -20 0 66 38 -20 19 28 -234 137 796 664 227 41 46 19 -79 -94 -10 -49 -57 -30 -19 -34 -109 -39 -9 -48 -1 -37 -40 40 -36 43 116 52 69 127 140 162 211 16 51 135 32 25 84 79 20 88 41 41 103 41 46 41 16 34 57 42 -37 -65 0 -69 -34 -38 -13 -60 -64 -49 -46 -83 -74 -117 -133 -100 -70 -58 -126 -95 -154 -130 -119 -145 -128 -78 -133 -103 4 -123 -92 -92 -40 -57 -111 -35 -60 -69 -47 -86 -86 14 15 22 -7 -32 -2 -22 0 -101 -89 -78 -81 -52 -175 -107 -71 -135 -96 -87 -296 -58 615 580 227 14 -193 -150 -103 -87 -119 -121 -69 -117 -166 -108 -110 -103 -31 -32 4 -94 4 -3 31 155 17 181 156 152 262 162 145 145 59 31 31 25 18 -7 -31 -33 -39 -57 -51 -87 -55 -99 -23 -17 -116 -87 -116 -79 -120 -123 -70 -138 -87 -73 -137 -149 -135 -156 -137 -142 -80 -75 -154 -133 -103 -128 -58 -59 -141 -61 -40 -93 -116 -108 -75 -13 -45 -104 -10 5 -107 -111 -30 13 -29 -66 -27 -25 -28 -55 -14 114 -19 28 55 52 25 16 -7 -84 -88 -14 -55 -51 -35 -9 61 -53 4 -104 -23 587 667 427 138 0 25 35 5 -8 33 18 14 59 94 60 49 18 60 89 -2 97 143 87 121 150 176 202 234 272 176 196 264 96 77 147 34 67 40 30 63 -9 8 0 69 38 -31 28 63 30 -40 21 59 -81 -34 23 0 67 -47 3 37 -45 -26 62 41 -32 15 79 71 -2 -16 75 21 42 68 30 11 14 40 56 -42 57 44 51 119 89 75 127 118 109 65 22 18 -15 15 -31 -97 -7 -29 -42 -54 -28 -167 -121 564 729 329 1 -22 -35 -50 -7 -85 -66 -37 -35 -49 -41 34 18 -24 -54 34 3 -6 15 62 114 50 58 120 118 54 99 157 94 13 16 53 -93 -92 -10 -73 -54 -41 -47 -118 -85 -112 -48 -100 -123 -61 -97 -140 -116 -162 -108 -91 -129 -157 -143 -176 -97 -165 -148 -95 -106 -142 -136 -125 -178 -127 -125 -122 -69 -128 -87 -112 -140 -74 -97 -177 -71 -51 -102 -69 -64 -118 -57 -1 -30 -22 6 -24 -10 -75 -126 -131 -111 -172 -131 -87 -160 -118 -51 -265 -198 -206 -96 431 575 241 4 -28 -148 -187 -125 -134 -148 -137 -88 -74 -48 -92 -102 -27 -89 -59 -37 12 -9 -7 39 118 76 85 121 164 182 123 75 65 13 -10 -99 17 -142 -96 43 -97 -108 -33 -59 -26 -13 -89 -49 0 -75 -22 -71 -57 -90 -42 -47 -105 -50 -64 -1 -40 -55 -89 -45 -52 -23 -11 -104 0 33 -56 -17 -6 -3 -56 -12 -18 -42 -68 -7 -41 -26 15 -62 -55 1 -74 -59 -44 -94 -96 -35 -47 -89 -92 25 -91 -78 -33 37 -13 11 -12 -48 -47 -71 -121 -26 -110 -147 -119 -67 -139 -133 -108 -112 198 627 483 220 45 -96 -16 -60 -97 -3 -31 31 -49 -23 -26 35 21 53 79 -27 32 112 106 100 127 168 124 131 202 235 123 65 119 26 39 44 -67 24 -69 -44 -50 -50 0 -88 -41 -40 -118 -8 -71 -101 -75 -86 -70 -80 -46 -1 -59 -91 -88 -13 -20 -70 -15 -2 -16 10 24 9 -39 -10 0 -40 19 41 -18 -13 -11 -34 -24 9 -34 -85 -61 -9 -77 -28 -19 -113 -66 -60 -82 -5 -122 -57 -13 -50 -35 -156 -53 -42 -81 -1 -71 -94 -46 -85 -12 -26 -79 -39 -26 -30 -26 -24 12 18 -18 35 -3 -50 -39 -21 -83 -115 -89 -78 -64 -100 -119 -52 -40 -155 -191 237 600 480 135 -57 -110 -159 -124 -87 -140 -119 -106 -106 -65 -92 -95 -28 -72 -89 -37 -62 38 43 -13 60 92 113 75 182 198 130 171 33 81 72 -40 19 68 26 28 48 27 17 18 15 48 1 27 73 12 -54 -33 50 11 -38 16 -60 -60 -99 -54 -3 -35 2 -110 -2 34 -144 -28 -38 -83 -4 -33 -51 -12 -30 -40 4 19 4 -19 11 1 13 -4 24 38 49 69 -25 49 70 26 66 107 113 -28 53 71 -64 18 -51 -51 44 -97 -25 -42 -101 -70 -48 -213 -48 630 624 279 -29 -78 -68 -90 -111 -148 -68 -74 -100 -54 -44 -82 -84 -76 -27 -36 -14 61 7 -11 82 89 103 167 169 225 112 184 177 89 146 89 97 8 74 124 27 69 37 124 84 13 60 39 65 40 18 47 -39 12 -88 -39 -20 7 48 19 -36 -34 -6 4 -21 32 -29 -47 28 -8 -25 15 -26 14 57 14 -24 -24 3 13 56 59 -46 83 61 -9 27 30 39 10 2 107 6 46 92 36 96 56 105 93 71 74 -8 14 11 10 6 -8 -7 3 -9 14 14 -10 -80 162 675 690 328 90 76 69 18 89 36 87 108 89 45 137 137 68 151 172 127 115 140 191 189 132 215 285 267 360 315 290 296 304 139 134 99 120 62 71 -1 87 51 -49 36 -12 -22 63 33 42 -30 14 -8 -63 14 -53 -29 3 -119 -30 -26 -77 -12 -4 -14 49 37 25 -32 1 14 87 36 -14 3 -8 102 39 8 32 16 85 75 26 -16 19 65 9 7 29 3 65 -42 20 -18 23 21 19 54 66 101 41 -7 -9 11 12 -14 52 -82 -34 22 32 2 -21 -100 296 696 540 248 101 79 52 23 45 53 36 22 94 35 99 80 50 23 105 102 77 103 45 154 162 113 252 184 186 235 201 132 143 132 51 76 73 48 83 99 96 -26 29 91 68 46 147 58 17 135 60 48 83 76 105 95 63 112 107 50 154 169 86 85 78 184 97 43 171 129 59 153 91 103 139 90 119 102 73 153 101 76 117 175 191 137 138 82 -9 12 36 31 76 39 62 0 -14 4 -8 -146 286 852 655 208 82 57 56 1 107 30 136 166 85 57 152 122 101 121 153 143 147 87 193 171 239 246 248 223 281 231 278 215 117 160 154 97 51 -10 108 66 12 3 63 30 -12 22 26 -38 -19 -58 -39 -53 -78 -29 -37 -58 -105 -76 -39 -87 -4 -105 -64 -5 -74 -75 -79 -37 -31 -22 -40 -63 -62 -74 -63 -62 -20 -26 -10 -10 32 24 2 -62 14 -46 -72 -37 -112 -106 -128 -74 -129 -117 -97 -105 -212 -93 591 552 158 -82 -170 -117 -172 -122 -99 -209 -109 -113 -169 -90 -92 -92 -47 -138 -81 -59 -64 -33 -20 11 23 -14 101 159 110 100 90 0 46 42 -54 -36 -64 -32 32 -106 -32 -38 -17 -10 -10 15 -113 -33 -43 -87 -40 -87 -53 -67 -96 -152 -89 -123 -124 -123 -78 -63 -136 -136 -95 -92 -123 -47 8 5 -59 -82 -38 -49 -20 -19 17 3 17 75 -6 26 34 35 72 -60 61 33 0 22 17 56 -37 71 58 37 13 -8 -16 -149 -87 -117 -103 -98 -124 -92 -161 -159 -75 -211 -103 443 571 293 -14 -145 -88 -63 -73 -108 -97 -59 -22 -40 -98 -44 -18 -17 -25 -22 -30 -8 36 1 51 44 100 100 91 130 126 121 88 112 22 0 -40 -54 -83 -146 -5 -73 -122 -83 -53 -15 -107 -69 -42 -66 -113 -110 -28 -49 -169 -159 -65 -149 -132 -81 -131 -87 -79 -98 -44 -83 -99 -66 -72 -60 -76 -72 -58 -45 -66 -7 -36 -91 -28 -69 -37 22 34 -70 -64 4 -25 -55 -55 -35 17 -54 -116 -90 -84 -96 -65 -21 -45 -58 0 -37 26 64 -71 -51 -4 -77 -62 -80 -42 -19 -66 -23 11 -44 42 -103 -124 473 694 441 134 37 17 -8 10 -66 -54 -25 -60 -45 37 3 -46 29 -36 -9 67 44 19 32 45 97 147 105 102 177 134 106 146 42 39 61 54 33 -118 -52 7 -46 -46 21 -20 -30 -69 -32 18 -70 -18 28 -4 9 45 2 -37 40 -27 24 76 -43 47 10 -48 78 25 -19 -27 -62 -12 9 24 -33 -59 -45 -115 -27 -52 -111 -50 -91 -138 -43 -117 -109 -37 -112 -142 -47 5 -43 4 12 -22 15 12 -41 -88 -13 -146 -87 -14 -111 -77 -19 -80 -77 -12 -145 -115 521 668 316 24 0 -36 -48 -79 -101 -50 -130 -42 -35 -73 -58 -52 -42 -46 -19 -28 -71 26 95 85 105 87 71 137 120 159 150 85 59 -20 29 -57 -58 -23 -112 -49 -22 -114 -43 -5 -85 -78 -57 -58 1 -49 -34 -80 -46 -74 -36 -74 -42 -50 -53 -12 -94 -55 -21 -30 -40 -111 -7 -55 -67 -61 -104 -132 -92 -39 -49 -96 -114 -175 -98 -63 -128 -122 -84 -173 -130 -55 -132 -130 -92 -138 -137 -62 -162 -88 -106 -151 -14 -105 -46 -23 -62 -68 -51 -19 -3 5 53 70 71 -1 -18 16 -71 -55 -52 -44 13 -152 -65 9 -64 -114 -160 -15 516 631 349 5 3 -7 -116 -112 -72 -40 -63 -78 -67 -31 -8 -91 -42 -58 15 -7 -57 8 20 66 76 112 243 132 192 226 158 156 113 112 101 -36 53 13 -81 52 46 -29 -31 -38 9 -21 -23 33 48 -93 23 -57 -136 -63 -104 
#avR[uV]
418 -142 446 -233 327 -358 215 -526 111 -688 4 62 33 97 94 23 58 99 71 60 38 61 94 -13 -121 -558 -741 24 504 332 98 24 52 10 -42 -46 2 -58 -31 -30 -88 -45 -71 -86 -143 -202 -157 -215 -257 -355 -416 -507 -567 -498 -477 -388 -309 -230 -89 -86 -59 56 44 3 15 -40 52 72 36 -18 19 39 -68 -8 60 5 7 22 0 -33 -13 20 12 16 34 2 15 -5 -8 -8 47 -2 -33 42 28 -63 -23 71 46 1 8 29 -20 0 36 -1 83 47 0 35 -23 47 13 -59 58 37 -21 -4 10 21 73 -8 -28 51 -58 -3 0 -50 -65 -82 -94 -78 35 -20 45 13 -35 80 5 -10 46 -19 46 -24 -155 -597 -840 -82 443 251 32 -6 0 -18 20 -71 -51 17 -33 -66 -33 -54 -82 -91 -122 -150 -133 -213 -306 -279 -345 -431 -461 -459 -414 -352 -241 -150 -153 -29 15 -2 90 43 30 65 41 24 88 63 24 53 23 65 82 35 74 15 104 91 21 112 73 90 56 78 148 72 79 94 142 118 108 97 140 114 110 127 119 120 151 90 101 102 82 81 166 85 108 145 27 82 70 73 84 46 94 46 1 45 89 22 -59 -23 77 -5 53 125 66 66 48 0 96 124 21 125 108 -150 -509 -594 81 591 439 161 148 78 22 119 24 4 37 48 29 -56 15 19 -77 -19 -104 -193 -157 -245 -287 -357 -434 -496 -505 -374 -328 -246 -178 -63 23 24 49 78 79 40 148 79 32 149 80 87 42 62 109 73 118 62 76 125 79 108 99 112 98 152 126 100 136 129 74 64 129 111 122 72 134 103 88 91 71 79 81 84 102 104 41 63 52 91 55 9 106 25 22 111 54 45 33 -12 42 -39 -50 -40 -54 52 -34 -4 54 92 107 45 112 48 -17 50 68 -47 -367 -667 -302 411 440 90 70 90 37 73 51 70 46 -1 -26 -10 59 -35 -48 -33 -117 -112 -196 -215 -212 -333 -397 -464 -414 -385 -375 -308 -199 -50 -16 -1 68 50 75 26 50 58 40 129 66 105 25 52 98 15 44 90 155 55 76 107 57 135 87 54 160 87 79 137 43 131 111 91 127 50 104 105 56 83 74 8 18 88 74 31 88 45 -27 90 58 -22 14 47 71 14 51 52 -36 -17 26 -2 18 -30 -57 -44 -58 -62 -58 -12 27 73 51 -9 31 34 34 48 78 84 -91 -372 -713 -322 436 444 163 91 67 21 -13 -3 6 -25 -4 38 -85 0 -70 -108 -37 -191 -171 -148 -256 -269 -368 -463 -426 -469 -456 -419 -351 -183 -128 -61 5 68 35 57 40 74 139 83 67 102 121 33 75 97 31 121 99 71 93 108 67 76 139 112 126 143 -2 52 132 87 71 101 71 7 49 58 65 47 12 110 27 -56 67 79 28 -32 6 18 -17 75 1 -67 5 21 -57 -22 59 64 97 81 20 55 86 112 73 102 73 -37 -375 -706 -151 523 527 211 94 85 71 7 6 31 -22 -23 -14 -57 -24 -43 -117 -135 -154 -200 -247 -245 -325 -438 -473 -443 -499 -549 -380 -276 -224 -182 -61 74 -9 36 119 101 29 73 117 58 73 88 97 64 23 105 99 86 113 87 91 68 127 155 61 75 122 88 108 131 90 117 75 88 59 51 79 77 105 80 33 39 84 65 52 51 60 52 68 36 49 56 38 57 -1 -12 -45 -14 5 26 35 71 97 -4 67 121 51 129 50 -16 45 -7 -275 -745 -363 324 425 236 37 43 -2 19 -3 -30 -30 -28 -8 -65 -76 -60 -117 -153 -129 -150 -214 -306 -298 -385 -505 -536 -493 -486 -430 -303 -270 -220 -6 -79 -95 63 -20 6 127 27 26 25 18 66 45 -38 67 77 15 99 63 56 84 64 88 105 35 71 138 103 88 48 111 70 54 120 24 64 96 55 39 24 54 31 64 99 -17 14 74 -1 0 21 35 23 22 -11 -17 3 -4 11 44 13 0 -17 -10 65 -70 -25 4 -91 -91 -5 14 47 5 12 75 10 0 76 29 24 -19 -65 -201 -610 -660 9 413 243 -15 8 -27 -51 -62 -88 16 -94 -164 -69 -40 -79 -132 -108 -189 -238 -186 -220 -333 -398 -406 -514 -539 -515 -459 -374 -354 -212 -128 -67 -16 -47 38 2 -11 24 -18 0 2 26 16 -9 -17 -32 -24 37 -43 -10 18 -35 50 21 -62 19 -1 -6 -7 -30 -47 -11 -23 -37 -4 -25 -46 -30 -47 -49 -35 -13 -51 -82 -91 -9 34 -15 -24 -25 -20 -2 14 1 -32 44 -17 20 79 -40 -25 29 38 -1 14 44 17 26 41 17 -8 -4 -50 58 33 -29 19 9 -24 -78 -77 -28 -69 -100 -84 -114 -51 -47 13 -7 -54 -14 -32 -12 -53 18 66 20 -88 -290 -678 -626 244 549 235 88 -9 20 86 -6 -25 11 -12 10 -8 -54 -19 -22 -77 -76 -160 -169 -142 -310 -363 -342 -411 -495 -440 -439 -302 -196 -254 -16 2 -6 61 66 92 55 93 78 24 80 112 30 25 76 60 70 73 51 92 87 72 131 73 108 116 69 139 131 145 101 141 139 81 104 112 113 182 199 156 137 106 136 92 150 144 114 148 102 120 80 83 136 134 107 54 140 70 32 77 42 7 -64 26 144 103 142 71 29 112 88 121 166 97 97 97 15 -401 -769 -159 529 459 223 105 58 37 40 26 -20 17 30 3 -42 -52 -8 -60 -107 -80 -153 -210 -234 -277 -391 -484 -520 -451 -440 -424 -264 -237 -137 -55 65 66 -5 121 124 83 22 17 122 69 59 113 88 110 27 56 123 58 131 74 110 86 87 158 106 140 100 118 146 106 180 93 66 108 119 168 133 118 64 75 147 57 56 102 31 112 63 -7 130 53 -6 79 18 58 40 -10 91 22 -18 -1 -50 12 -24 -3 -34 -97 -29 31 44 66 49 12 120 112 56 131 81 48 9 -77 -408 -727 -77 482 328 183 59 67 113 75 29 44 46 -41 27 38 -46 -45 -48 -38 -138 -196 -135 -217 -385 -295 -373 -508 -461 -452 -407 -247 -188 -78 -55 -47 25 79 58 57 129 100 25 72 25 -17 81 128 80 62 63 75 29 145 34 68 176 -11 97 140 64 113 26 67 116 92 88 82 37 30 111 70 26 78 16 74 49 9 81 59 48 64 10 12 26 20 63 67 56 -4 34 43 20 73 22 -28 17 6 11 -30 -76 55 69 69 92 100 66 28 49 97 42 101 40 -167 -558 -658 214 543 196 152 25 45 25 -65 -22 -11 6 -36 21 7 -92 -123 -105 -140 -129 -104 -280 -290 -326 -414 -401 -515 -494 -419 -347 -266 -210 -44 -6 12 101 141 66 125 97 67 84 95 146 82 101 94 91 88 53 135 102 151 115 58 107 93 82 101 108 126 76 63 69 108 121 73 140 86 29 58 59 106 118 43 111 73 86 25 -3 57 -1 31 37 7 50 79 8 74 124 88 103 112 109 111 82 76 10 -139 -547 -453 295 621 354 176 49 46 15 59 57 44 24 -10 27 -29 -64 -14 -100 -72 -90 -199 -209 -263 -335 -364 -439 -452 -461 -411 -309 -209 -147 27 36 70 83 21 120 122 67 113 113 93 26 113 85 47 90 38 131 112 35 111 53 120 61 79 112 58 99 19 111 105 -27 56 55 46 59 99 47 40 -3 9 64 39 16 16 22 20 -27 -49 -64 -87 70 69 4 75 63 83 40 99 65 63 64 13 -79 -474 -714 -131 538 485 106 34 32 67 17 -19 22 19 -51 11 -46 -60 -60 -136 -132 -147 -129 -229 -317 -332 -428 -470 -498 -483 -461 -359 -325 -297 -129 -1 -29 38 -14 15 136 1 32 65 35 69 118 88 21 108 28 19 110 101 72 131 84 10 99 99 69 23 118 143 57 52 13 80 52 80 129 72 66 35 2 51 46 9 38 8 37 45 -12 55 32 -5 46 -49 56 56 -5 5 25 17 -49 -37 -43 23 -73 -1 49 -56 35 6 52 50 52 55 16 45 35 -64 -344 -726 -369 403 371 142 57 33 3 -33 1 69 22 -97 -67 -31 -56 -43 -89 -150 -115 -106 -230 -283 -243 -344 -464 -458 -484 -474 -435 -337 -217 -133 -102 -60 18 28 42 51 56 95 33 -2 100 143 52 63 92 77 82 33 80 157 64 128 97 100 99 66 40 85 100 9 100 72 49 54 11 160 72 -22 86 84 20 112 32 55 142 45 34 54 106 97 21 93 105 72 56 72 106 126 115 45 75 68 79 165 73 37 94 19 23 31 -52 -28 116 131 93 129 113 125 101 132 93 85 195 -37 -289 -542 -390 348 540 285 118 39 34 68 13 31 -7 10 28 -20 -35 -41 -66 -94 -67 -114 -175 -172 -238 -290 -332 -401 -404 -422 -375 -251 -152 -109 -11 62 81 101 106 82 126 110 123 146 71 116 94 81 124 117 77 73 115 112 137 90 73 158 43 108 182 70 139 84 112 115 123 117 0 62 115 152 148 33 39 96 66 85 71 87 99 65 100 108 106 83 74 74 61 94 89 11 88 88 -6 -18 64 56 94 117 39 84 84 25 55 108 81 75 36 -62 -381 -719 -267 433 444 168 36 40 32 10 -5 -35 -46 -38 -24 -33 -42 -39 -86 -128 -152 -138 -105 -200 -235 -340 -442 -467 -422 -386 -370 -220 -145 -139 -58 38 67 73 135 101 130 77 34 93 91 64 89 46 109 68 30 21 20 50 77 92 45 117 54 -22 59 44 120 103 134 40 31 110 43 49 91 78 8 81 170 110 48 76 55 8 116 117 86 109 59 72 114 41 67 75 46 101 131 45 105 53 -4 76 57 70 88 73 93 17 -20 -1 2 -18 -52 -41 -4 -25 55 11 16 28 36 65 -12 -14 62 65 28 -104 -364 -639 -345 392 322 120 147 27 36 5 91 9 1 -40 -57 26 -57 -8 -15 -39 -87 -194 -182 -166 -242 -366 -377 -394 -460 -416 -359 -359 -224 -143 -67 28 -55 42 104 21 112 67 4 43 27 27 35 -6 25 48 16 99 111 7 55 37 
#avL[uV]
-3962 -4563 -3276 -3794 -2427 -2974 -1625 -2088 -864 -1258 -38 -96 -3 -61 -58 74 -5 -60 -22 0 24 -53 -33 13 199 215 -153 -548 -487 -161 -61 -37 4 -24 35 39 -43 50 11 -42 49 9 3 -6 39 116 51 58 57 145 140 140 243 121 110 90 66 113 -15 6 45 -80 1 11 16 84 10 -62 -26 57 0 -55 100 11 -7 28 35 7 82 87 46 38 66 12 29 43 30 47 76 57 14 85 94 10 47 65 78 4 3 142 52 58 129 80 51 81 39 81 107 53 113 85 90 135 51 108 94 106 81 62 46 102 143 50 105 81 34 19 70 63 39 69 1 35 -21 66 68 -78 38 14 23 81 33 60 205 186 -132 -373 -393 -165 88 46 103 79 46 128 83 92 108 91 94 124 76 123 154 108 128 115 218 151 87 214 195 171 126 115 56 -19 62 11 -2 10 -69 -25 -53 -49 27 -8 -83 -49 -15 -51 -20 -38 -45 -65 -16 20 -86 -43 -6 -77 0 -75 9 23 -88 -42 -19 -17 -33 -85 0 -37 -93 -35 -33 -70 -81 -84 -52 -33 -25 -25 0 -20 -86 -20 -75 -87 26 -54 -51 -54 -36 -28 -84 -53 -75 -122 -140 -80 -10 -104 -128 -7 -84 -132 -52 -54 -8 0 -97 -91 4 -77 -75 251 151 -300 -538 -466 -250 -115 -88 20 59 -51 24 40 3 -9 11 110 22 -2 74 11 79 126 48 150 111 91 177 195 156 81 42 -35 76 -6 -113 -36 -44 -102 -98 -35 -140 -70 -47 -152 -71 -78 -52 -43 -80 -79 -91 -3 11 -62 12 -28 -21 -46 -3 -28 -25 -14 -5 -8 50 68 11 -2 -17 58 4 63 53 43 73 56 18 58 26 -55 71 37 43 -15 15 79 -26 32 40 -19 38 42 -27 -5 -37 24 49 22 43 -26 93 69 31 14 -14 108 23 29 109 47 31 245 227 -127 -284 -376 -231 99 77 32 47 52 65 17 65 125 94 87 48 40 48 13 129 53 100 84 -10 153 62 114 92 -3 66 45 -9 -19 -15 -22 -53 -38 -31 10 0 0 23 -26 32 -10 61 -8 -36 79 43 41 -18 62 54 -1 74 -2 11 75 31 58 77 34 85 -5 0 70 36 52 43 -8 16 64 8 26 60 42 43 41 -34 11 92 -37 -33 91 76 0 -45 15 24 -6 37 30 28 12 -94 29 7 -19 -10 12 16 11 49 29 -15 46 23 9 -10 -70 0 -46 123 203 -83 -339 -539 -325 -81 -64 -60 -14 12 -23 -16 1 -42 -90 -2 -37 21 8 -48 97 12 -33 62 43 71 99 61 58 24 77 28 -106 -7 -26 -113 -59 -68 -59 -43 -85 -62 -48 -33 -103 -89 6 -58 -96 -38 -30 -65 -79 14 -28 -50 -38 -120 -20 -65 -100 35 -6 -113 -75 -11 -62 -95 -57 -22 -16 -89 -39 -38 -106 -36 19 -44 -70 -56 48 -46 -42 -29 -127 -67 -23 -98 -99 -53 -38 -46 -45 -37 -51 13 45 -37 -34 -5 -10 -14 144 279 -70 -471 -508 -264 -89 -20 -4 -30 60 46 12 37 48 38 2 -1 40 99 41 74 105 111 75 76 181 192 131 160 234 115 20 40 81 18 -77 74 50 -52 4 26 -5 -23 59 27 39 -12 43 80 -6 23 62 30 78 35 33 33 40 76 94 12 79 57 5 34 48 64 50 103 70 54 53 0 56 48 64 62 23 46 106 23 12 42 33 23 60 23 -27 23 23 17 25 5 43 76 62 34 131 64 4 94 24 13 207 126 158 210 49 -250 -343 -216 -96 92 119 94 90 113 118 81 69 40 102 115 50 126 121 92 65 114 158 119 104 195 204 155 120 78 58 78 61 -7 47 122 -44 117 69 -96 58 67 11 35 -13 -12 86 3 -39 49 -33 22 15 25 0 -8 26 20 12 -67 -21 -2 42 -21 3 -9 -51 66 -32 -73 14 -6 -7 -24 26 -22 -35 40 44 -31 31 19 -22 29 29 -12 61 53 31 72 66 4 28 66 78 -13 35 94 38 -30 55 36 12 29 12 51 84 -17 77 110 51 35 92 110 114 185 156 -140 -367 -372 -155 80 8 59 98 33 67 -32 84 99 54 -6 23 26 -5 115 94 8 30 90 103 76 164 171 105 53 94 127 16 44 3 -25 74 -37 51 38 25 47 0 65 17 22 94 14 69 88 37 86 58 51 53 -23 33 100 56 10 18 56 27 25 18 3 0 -4 42 31 15 54 10 -13 20 35 49 71 23 -24 33 76 58 17 59 14 14 101 27 54 51 -35 111 55 -5 18 27 110 17 23 47 -19 44 74 37 89 -19 2 74 20 15 34 59 57 4 21 64 15 59 63 53 9 66 113 74 75 54 101 80 6 20 160 289 161 -136 -483 -376 -75 38 123 83 22 108 102 74 86 43 73 98 31 65 105 66 127 56 38 165 136 101 120 191 83 70 53 -30 102 -52 -55 33 -45 -84 -65 -49 -83 -59 -25 -54 -68 -51 -13 -58 -85 -44 4 0 -83 -52 -7 -77 8 -8 16 6 -67 -38 -74 32 -68 -95 67 -30 -27 5 -87 -74 -39 -59 -30 -38 -49 -89 -75 -42 -82 -52 -70 -37 -60 -97 -104 -105 -8 -107 -87 -35 -88 -102 -88 53 -53 -126 -2 -85 2 23 -89 28 -41 -51 27 3 -12 152 236 -88 -388 -474 -207 -53 0 38 65 90 37 65 67 25 31 83 89 61 50 81 51 30 99 125 76 128 164 134 98 51 127 -6 -14 1 -82 -99 -106 -3 -116 -155 -62 -62 -36 -154 -97 -39 -102 -73 -103 -44 -42 -96 0 -74 29 -25 -28 -49 -115 -68 -43 -24 -54 -76 -36 -114 -25 2 -75 -53 -64 -78 -39 -43 -80 -84 -10 -9 -53 -25 -98 -76 38 -127 -72 10 -60 -32 -58 -28 3 -126 -16 -25 -68 -1 -78 -30 -77 -52 -5 -41 -9 -32 -42 -32 -11 -53 -50 -31 -58 -51 -35 3 99 81 -142 -478 -487 -231 -149 -81 -47 -124 -64 -80 -103 -90 -13 -116 -122 -28 -90 -104 -75 -17 -7 -75 -33 93 -13 -27 53 -39 -10 -13 -99 -134 -65 -73 -51 -103 -87 -82 -27 -130 -88 24 -63 -3 25 -87 -89 -72 -8 -42 -31 32 -83 23 -12 -90 95 -25 -50 26 -47 -10 -23 -95 -74 -63 -17 -20 -26 -121 -62 -2 -42 -1 -114 -54 -11 -65 -41 -88 -88 -24 6 -27 -59 -38 -39 -50 0 -66 10 -25 -22 -29 -2 -23 -44 -55 -61 7 -21 -27 -43 -55 -39 -72 47 1 -66 -45 -52 -4 159 56 -193 -512 -458 -174 -135 -52 -40 -46 -7 -16 -11 -74 -8 -85 -64 8 44 -26 -6 6 -25 106 29 41 122 11 118 107 33 22 33 -2 -77 -35 -63 -105 -106 -95 -137 -121 -14 -64 -116 -124 -76 -161 -90 -59 -146 -72 -104 -113 -132 -136 -101 -101 -130 -121 -88 -169 -190 -103 -95 -93 -192 -133 -69 -199 -140 -59 -144 -98 -130 -163 -89 -145 -114 -98 -128 -74 -85 -87 -147 -162 -106 -129 -101 2 -46 -89 -67 -109 -85 -101 -56 -30 -41 1 179 58 -412 -639 -467 -239 -131 -67 -24 -88 -53 -131 -147 -76 -38 -128 -77 -43 -84 -64 -71 -65 34 -40 3 -11 -2 33 58 19 31 -53 -56 -14 -133 -134 -108 -80 -3 -141 -110 -43 -59 -104 -69 -3 -73 -62 4 -30 24 -35 -16 41 -33 1 -16 48 17 -26 36 -46 69 -7 -49 70 28 31 4 -6 -32 6 26 48 50 15 26 7 11 -3 -2 -10 6 30 90 -45 0 52 -9 52 38 76 6 64 56 40 72 199 307 -86 -348 -387 -181 74 70 112 58 65 167 70 75 152 61 92 99 65 172 126 118 113 140 173 157 196 246 173 122 147 104 94 148 29 -31 55 8 55 16 -92 79 8 -3 -4 -26 -51 -56 74 -29 18 55 -24 15 3 -15 29 108 17 42 58 81 0 -23 73 76 64 29 65 -4 -71 -40 11 44 28 11 -8 9 -32 -6 -32 -79 11 -47 -42 -23 -77 69 -74 -53 2 -20 -25 -51 52 -34 -22 -39 26 6 -12 140 47 85 51 48 67 41 112 96 38 190 249 30 -243 -422 -174 37 37 30 53 98 71 10 6 79 107 49 42 34 64 91 81 59 87 140 83 139 156 153 173 139 122 77 42 -17 34 30 21 26 41 84 -23 7 75 64 -9 -60 53 20 -14 11 43 65 -18 -41 94 55 0 62 49 27 77 22 9 69 -16 26 49 22 48 -34 21 65 0 -8 39 -50 11 40 -50 29 10 -44 -78 4 37 -49 -33 5 13 -9 -65 -22 29 45 25 38 9 -66 -3 24 -47 18 -31 -64 79 52 -55 -7 0 -4 -24 -48 0 -48 -55 -9 -129 96 238 -83 -325 -505 -371 -170 -72 -13 -24 16 33 3 49 28 -42 8 52 -1 60 54 -16 24 73 61 85 71 55 121 125 78 87 45 -33 23 -23 -77 -81 -75 35 -1 -68 -20 -26 -89 -20 -35 4 -16 -76 -5 -25 -57 -54 -63 -102 -47 -8 -109 -1 -72 -149 -2 -105 -50 -20 -116 -81 -43 20 15 -48 -82 -92 8 24 -14 53 -21 3 39 -11 35 54 -21 34 40 -9 46 76 -11 -49 26 -47 -53 20 -2 -41 3 19 -48 90 22 -31 71 30 -40 19 19 -8 139 277 -31 -367 -453 -240 -83 9 16 43 70 40 115 54 46 67 60 60 51 78 79 97 123 33 29 53 90 155 180 107 103 65 -2 8 25 44 -41 9 7 -50 33 -28 -21 68 -13 -41 32 14 19 -10 -35 22 15 49 9 17 -18 32 -26 10 51 -19 48 -18 -35 -44 9 67 -49 20 25 0 39 94 29 -55 -18 48 47 103 69 -11 37 48 8 100 62 -15 78 63 31 80 52 -19 99 13 53 115 -27 50 0 -26 10 4 29 24 2 -5 -31 -26 -32 3 26 -39 47 33 25 14 -42 120 56 -38 15 72 172 193 -67 -301 -458 -165 -62 -68 74 65 51 -15 43 57 70 52 -6 97 36 51 7 49 140 84 67 71 126 104 14 131 63 9 60 -4 -12 -50 -90 55 -61 -62 50 -95 -68 20 1 14 -20 -1 21 -37 -60 62 -67 -12 98 19 59 
#avF[uV]
3543 4705 2829 4028 2100 3333 1409 2614 753 1946 33 33 -29 -36 -36 -97 -52 -38 -48 -59 -63 -7 -61 0 -78 343 895 524 -16 -170 -37 12 -56 13 7 6 41 8 20 73 39 36 68 92 104 85 106 156 199 210 276 367 323 376 366 298 242 117 104 79 13 24 -46 -14 -31 -44 -62 -9 -9 -39 -19 16 -32 -2 -52 -34 -42 -29 -82 -54 -32 -58 -78 -29 -64 -46 -46 -41 -68 -49 -62 -82 -61 -53 -76 -2 -55 -75 -49 -144 -60 -87 -108 -79 -88 -80 -122 -128 -106 -89 -90 -132 -104 -75 -109 -146 -73 -101 -92 -84 -119 -94 -114 -102 -46 -77 -33 30 -4 18 54 8 -37 -15 -24 -80 -33 -1 -43 -3 -69 -62 -79 -35 -50 411 972 455 -49 -86 -121 -39 -104 -61 -66 -57 -32 -109 -75 -24 -61 -69 5 -31 -31 42 5 97 87 128 257 216 266 288 287 237 185 170 90 17 -13 -7 -20 -17 23 -16 -69 -15 -5 -14 -9 -2 -3 -27 -36 30 -57 -35 -17 -47 -14 -35 -73 -15 -66 -101 -59 -30 -59 -77 -109 -33 -108 -60 -47 -78 -76 -56 -37 -36 -98 -56 -76 -77 -82 -60 -79 -64 -32 -58 -53 -28 -19 -19 -47 -17 -10 6 74 76 51 58 69 128 51 12 30 7 -13 -12 -40 0 1 -33 -26 -47 -33 -100 357 894 457 -125 -188 -45 -59 -98 -81 -67 -48 -45 -41 -38 -40 -53 -37 -16 2 8 24 66 108 95 176 266 256 300 348 292 285 282 101 70 89 12 -5 23 19 -5 -8 -8 14 2 -9 -9 9 -19 -28 6 -27 -59 -87 -62 -92 -80 -78 -66 -95 -124 -100 -85 -131 -120 -125 -132 -140 -108 -105 -130 -139 -167 -142 -135 -144 -136 -99 -142 -129 -48 -113 -100 -95 -76 -71 -88 -80 -58 -62 -91 -92 -87 -6 17 -4 14 1 18 10 -26 -58 -64 -86 -107 -93 -153 -136 -77 -92 -97 -100 -198 139 794 586 -34 -209 -190 -147 -122 -84 -126 -116 -87 -111 -124 -67 -77 -107 -5 0 20 -12 59 95 131 222 179 334 349 321 389 309 263 208 69 31 24 -14 -11 -43 -37 -50 -59 -63 -103 -99 -94 -87 -43 -62 -95 -87 -132 -137 -117 -130 -106 -132 -133 -98 -130 -191 -145 -156 -171 -128 -125 -112 -161 -163 -102 -148 -96 -73 -147 -83 -34 -79 -131 -118 -72 -53 -56 -65 -53 -24 -69 -90 -47 -26 -29 -75 -46 -1 -12 -55 -9 76 0 50 63 68 49 41 0 -76 -103 -36 -37 -54 -43 -24 22 -79 -38 -32 169 797 661 102 -118 -81 -26 -7 -7 0 26 10 23 47 51 88 37 48 99 85 93 158 182 193 226 297 364 365 410 432 342 322 290 136 88 108 -8 32 1 2 10 -76 -35 -33 0 -31 -40 -16 -1 7 -91 -34 8 -107 -80 -16 -37 -19 -91 -60 -43 -33 -45 -19 -12 -59 -39 24 49 -27 -41 23 -7 25 -4 8 36 -22 -9 28 -15 40 24 47 52 66 90 93 77 111 60 -13 -18 -60 -29 -33 -101 -48 -78 -68 -92 -58 -107 96 776 623 -14 -263 -122 -73 -80 -41 -67 -53 -43 -15 -25 -24 54 25 3 18 93 79 95 135 169 248 256 280 312 338 315 264 256 183 100 42 2 -65 -87 -67 -105 -55 -68 -94 -117 -101 -128 -85 -107 -104 -99 -123 -148 -144 -165 -126 -102 -161 -196 -138 -169 -134 -168 -165 -137 -124 -165 -140 -138 -163 -121 -133 -130 -105 -136 -81 -103 -147 -88 -98 -158 -84 -64 -111 -69 -72 -117 -62 -29 -21 -10 27 -11 -10 -69 -112 -134 -132 -126 -132 -126 -146 -153 -64 -191 -171 -150 65 695 613 18 -209 -139 -129 -162 -92 -110 -109 -87 -51 -41 -32 -37 -38 9 -8 32 36 85 100 147 178 281 309 332 338 366 351 244 191 159 13 32 -27 -18 -96 -75 -30 -86 -94 -37 -54 -53 -33 -48 -70 -38 -64 -66 -85 -71 -110 -64 -79 -131 -55 -84 -70 -82 -86 -91 -89 -74 -45 -68 -90 -32 -23 -70 -32 -16 -29 -58 -41 -63 -22 -58 -42 -30 -19 1 -65 -53 -10 -50 -35 -35 -68 -77 -48 -42 -67 -60 24 -101 -24 -12 25 35 54 -6 -44 -59 -56 -97 -57 -88 -110 -127 -65 -116 -90 -48 16 453 801 357 -41 -87 -65 -16 -31 -47 29 20 15 10 64 15 46 55 105 114 74 143 177 190 242 295 329 350 368 409 406 279 226 195 84 63 41 -27 0 -53 -27 -50 -29 0 -67 -44 -38 -84 2 -37 -64 -75 -43 -47 -69 -17 -26 -55 -37 -76 -9 -12 -49 3 21 -6 19 37 9 -16 15 14 -6 39 49 -7 15 32 20 -13 -9 -18 -51 -33 3 -56 -28 -15 -69 -72 -36 -72 -43 -71 -30 -24 -56 -25 -124 -62 -40 -74 -22 -62 -66 -32 -38 -39 -36 -45 -39 -24 -10 19 20 23 48 36 69 54 -11 -5 -23 -58 -58 -59 -42 -42 -48 -98 -72 -40 -72 1 517 763 238 -173 -160 -126 -114 -103 -108 -101 -76 -85 -73 -54 -65 -44 -11 -43 -28 10 32 113 103 145 227 241 290 304 356 368 248 227 152 69 53 -27 -15 18 -26 -5 -9 -18 0 -26 -44 20 -11 -17 24 -26 -78 -50 -8 -35 -65 -53 -82 -99 -132 -75 -72 -92 -71 -133 -72 -43 -149 -73 -84 -119 -94 -124 -117 -78 -75 -98 -42 -60 -68 -71 -65 -50 -50 -43 -23 -39 -29 -2 -45 -33 17 3 11 59 81 10 27 -18 -100 -56 -74 -53 -22 -117 -80 -114 -125 -101 -84 -167 164 857 548 -54 -251 -170 -104 -97 -102 -131 -64 -45 -84 -56 -34 -40 -37 -53 9 26 29 123 111 108 200 262 320 385 352 389 296 270 251 136 137 34 40 8 -5 30 -21 40 19 31 28 -19 -11 -14 -6 16 -14 -26 -58 -56 -103 -84 -58 -38 -42 -38 -97 -76 -64 -69 -69 -66 -68 -69 -32 -66 -103 -55 -79 -21 5 -62 -47 -47 -48 -5 -14 13 -30 -2 19 -3 -19 13 0 -12 6 34 -6 44 70 52 65 54 81 87 102 71 -22 -11 -24 -16 -1 -67 -61 -25 -72 -29 -13 -12 -21 326 870 556 4 -96 -34 22 -19 10 -10 50 59 44 54 88 84 74 136 153 114 155 203 211 251 292 309 400 455 501 462 421 346 322 143 128 98 77 7 24 -30 0 -11 -49 -8 -22 -7 6 -39 -8 -53 -21 -43 -62 -62 -57 -56 -85 -84 -71 -90 -90 -66 -16 -44 -21 -18 -25 -65 -17 -4 9 -7 -24 -36 -14 39 4 1 -16 -17 39 24 14 -19 1 39 -24 -28 -6 5 32 -53 5 -50 6 30 6 38 44 91 69 -33 -42 -25 -37 -61 6 -76 -50 -31 2 -49 -36 7 501 851 298 -85 -21 -16 26 -4 21 72 38 22 67 44 63 56 83 79 131 146 122 129 174 260 284 292 389 396 387 386 324 232 212 122 41 50 4 -34 28 12 24 -53 -20 20 -21 -6 59 -3 -32 57 18 -31 11 -18 21 42 -6 37 39 -13 61 63 27 32 24 84 12 -3 58 53 30 85 39 24 45 46 34 40 12 102 77 28 89 115 125 99 78 22 -11 -27 -34 -20 5 -26 -7 -55 -52 -35 -11 -40 488 866 344 -154 -114 -45 17 -21 73 -6 73 102 52 48 101 106 108 98 165 144 155 164 250 260 346 366 405 393 441 379 363 266 162 106 97 38 -3 -18 21 -11 -23 -53 -9 -23 -22 -40 -22 -52 -59 -63 -95 -96 -76 -77 -54 -104 -109 -97 -86 -95 -53 -89 -104 -56 -42 -84 -87 -51 -53 -66 -54 -67 -45 -60 -79 -66 -24 -28 -18 -17 38 42 34 -3 -24 -69 -56 -66 -115 -121 -117 -105 -130 -119 -105 -86 -119 167 800 480 -150 -304 -180 -104 -145 -126 -82 -147 -93 -94 -101 -73 -46 -39 -5 -36 5 28 16 89 143 174 231 224 325 361 313 254 230 149 99 32 -26 -46 -40 -31 -43 -80 -40 -61 -31 -42 -67 -32 -96 -79 -47 -75 -86 -116 -76 -116 -114 -119 -116 -142 -127 -104 -118 -119 -130 -128 -78 -110 -118 -75 -58 -31 -77 -80 -30 -62 -38 -18 -6 -1 -5 33 1 -7 9 29 31 -20 17 -3 2 14 0 33 -3 72 65 16 47 -5 -37 -84 -82 -91 -103 -99 -119 -97 -129 -142 -74 -126 94 695 612 18 -196 -180 -95 -64 -57 -64 -73 -79 -28 17 -39 -17 14 8 25 58 34 46 142 143 160 205 307 304 311 334 312 259 174 151 68 29 -40 -55 -83 -135 -32 -102 -108 -61 -90 -83 -106 -83 -78 -88 -126 -99 -62 -115 -159 -184 -97 -162 -148 -94 -118 -108 -110 -78 -83 -98 -99 -77 -60 -125 -94 -43 -86 -75 -60 -62 -43 -96 -92 -74 -45 -9 -27 -101 -58 -43 -71 -77 -69 -62 -40 -103 -145 -90 -101 -107 -88 -99 -70 -62 -46 -37 8 32 -27 -24 -61 -124 -94 -125 -88 -77 -100 -84 -38 -75 -65 -58 51 626 716 157 -169 -114 -46 -25 -9 -84 -47 -35 -41 -39 14 12 -17 42 5 40 84 90 102 110 153 218 277 279 279 344 288 205 186 86 35 14 0 -25 -141 -80 -57 -90 -96 -56 -51 -80 -99 -65 -48 -112 -52 -15 -60 -49 -35 -43 -65 -48 -42 -35 -33 -67 -34 -34 -92 0 -42 -73 -20 -78 -67 -69 -55 -41 -64 -82 -119 -63 -75 -127 -87 -101 -154 -87 -140 -123 -65 -121 -137 -83 -40 -38 -41 -34 -13 21 -23 -59 -113 -68 -129 -107 -53 -96 -86 -68 -101 -95 -27 -77 104 751 635 20 -204 -84 -45 -56 -76 -81 -35 -80 -8 -7 -43 -26 -18 -12 8 49 55 15 72 171 182 249 286 287 314 283 305 223 136 114 14 2 -76 -80 -85 -134 -101 -55 -103 -79 -49 -96 -103 -66 -99 -33 -52 -36 -70 -60 -94 -73 -78 -90 -64 -29 -39 -93 -102 -67 -90 -50 -99 -60 -63 -75 -91 -117 -103 -110 -114 -92 -96 -123 -159 -78 -105 -155 -134 -117 -160 -134 -99 -120 -131 -107 -127 -154 -112 -145 -119 -106 -110 -49 -108 -70 -62 -83 -98 -47 -4 -1 2 49 79 74 1 0 -15 -59 -50 -53 -51 -22 -108 -41 -23 -81 -100 -68 170 706 646 65 -157 -58 -79 -101 -102 -56 -76 -52 -59 -30 5 -19 -39 -27 -36 31 38 54 97 98 171 240 272 380 329 352 349 299 229 156 118 62 0 18 -41 -71 -16 1 -24 -45 -42 -6 -33 -14 12 12 -78 -32 -98 -106 -74 -96 
