ADC Sampling rate (Hz):
100
Fragment duration (sec):
20
Number of samples exported by each lead:
1999

#I[uV]
-542 -236 -399 -234 -221 -103 -76 67 13 -299 82 83 74 94 80 101 62 68 117 50 126 70 34 144 93 108 86 127 165 106 128 111 170 166 84 167 178 87 98 94 113 133 222 573 557 -156 -536 -250 40 89 167 172 182 176 134 172 218 173 192 250 154 258 318 368 374 407 367 454 491 468 436 350 397 255 215 178 191 183 138 137 168 160 92 111 139 147 144 138 152 109 139 176 125 91 132 145 124 149 100 92 121 112 111 58 80 112 59 85 70 52 115 86 41 42 56 70 50 25 41 74 45 29 41 22 17 67 47 47 27 29 51 59 54 15 25 12 30 18 18 31 35 33 7 57 77 58 59 22 31 0 15 51 4 49 70 148 259 596 424 -334 -560 -285 -49 61 42 97 119 115 112 114 131 132 130 136 145 221 226 219 259 315 340 385 438 381 370 316 214 122 129 48 49 51 34 4 -27 11 2 -6 50 43 -10 0 45 0 -5 -2 19 15 -7 23 12 -42 -38 2 16 -4 11 -68 -39 -63 -17 -32 -72 26 4 -10 -25 -62 10 -19 -72 -1 -41 -78 0 -58 -61 2 7 0 -22 -12 60 -44 3 3 -50 -7 -49 -93 -68 -45 -55 14 58 256 358 10 -508 -570 -322 -95 -18 -38 17 18 14 66 52 8 73 61 -20 98 108 160 173 184 251 329 289 322 349 211 216 129 86 72 72 -30 -57 -8 -7 -62 -43 1 -29 -43 28 -33 -49 39 21 60 25 -48 11 15 -38 42 -11 24 42 -56 -35 19 30 29 -6 47 132 73 109 130 90 125 107 134 143 133 138 124 144 177 132 140 167 145 135 136 147 101 149 62 22 115 51 70 215 548 483 -87 -502 -387 -98 40 64 34 106 98 152 109 77 120 140 109 107 172 205 190 222 279 356 386 319 331 299 211 199 110 107 40 14 -2 -91 -73 -31 -28 -59 -64 -32 -63 -138 -62 -58 -60 -75 -98 -144 -77 -95 -161 -163 -109 -97 -115 -54 -134 -153 -162 -203 -150 -143 -194 -191 -163 -187 -188 -200 -254 -218 -246 -218 -239 -236 -228 -265 -225 -227 -203 -185 -185 -251 -233 -211 -239 -194 -182 -168 -154 -223 -145 -221 -173 -242 -193 -196 -176 -264 -150 -38 42 264 -466 -769 -227 -309 -228 -216 -206 -195 -208 -179 -207 -195 -200 -206 -187 -153 -158 -148 -136 -123 -98 -42 -73 2 -49 -58 -58 -173 -170 -229 -212 -333 -256 -294 -286 -271 -270 -315 -308 -309 -297 -309 -322 -291 -307 -327 -320 -364 -317 -297 -330 -347 -328 -348 -333 -404 -358 -363 -359 -407 -422 -404 -400 -396 -383 -410 -457 -433 -431 -420 -459 -448 -436 -423 -425 -425 -412 -442 -443 -430 -427 -413 -408 -410 -415 -353 -357 -394 -356 -415 -441 -421 -388 -435 -407 -326 -390 -457 -436 -308 -152 92 -8 -630 -934 -772 -578 -377 -362 -328 -321 -359 -324 -323 -293 -306 -328 -261 -288 -213 -253 -210 -63 -64 -73 -22 16 -6 -30 -38 -171 -175 -233 -305 -353 -380 -334 -332 -402 -367 -325 -266 -266 -310 -281 -337 -294 -258 -270 -241 -242 -258 -224 -240 -261 -246 -242 -230 -296 -229 -238 -284 -253 -236 -277 -238 -285 -257 -220 -211 -220 -275 -277 -194 -178 -214 -222 -166 -179 -187 -220 -195 -161 -177 -151 -150 -160 -166 -181 -220 -182 -144 -156 -193 -170 -149 -189 -67 239 264 -199 -655 -631 -338 -156 -117 -112 -75 -72 21 -82 -73 40 -25 31 40 32 157 91 191 271 249 309 337 367 385 272 194 172 61 86 86 -19 -44 -31 -18 8 45 -60 66 45 -42 106 109 132 57 87 89 75 104 80 111 125 149 135 125 209 151 103 124 127 181 196 192 147 129 160 145 146 134 184 226 171 184 192 187 198 218 234 205 218 223 230 194 206 244 224 218 215 229 229 224 223 223 252 262 276 250 184 216 273 245 204 223 214 213 173 202 417 541 646 223 -353 -136 121 204 186 264 261 253 239 254 247 276 286 256 306 279 287 342 352 407 464 516 492 444 432 403 365 413 228 198 219 272 175 181 119 205 202 147 194 175 221 206 143 164 165 206 219 182 156 157 154 111 179 174 96 207 213 174 170 166 203 157 172 141 149 193 175 148 132 163 168 133 150 182 136 145 159 157 164 147 153 162 151 195 152 144 138 134 156 180 195 196 185 184 133 177 176 153 148 125 156 200 161 235 503 335 245 -184 -405 -43 38 164 140 122 164 210 224 262 192 223 283 237 269 349 274 281 351 342 469 432 493 481 330 336 288 238 113 159 111 121 48 74 79 -55 61 29 33 72 -3 3 8 13 -30 33 -4 -32 -36 -80 -24 -90 -55 -54 -23 -69 -132 -93 -105 -11 -36 -83 -105 -133 14 -63 -87 -73 -121 -69 -90 -104 -63 -63 -57 -142 -16 -14 -84 -53 -66 -73 -66 -91 -87 -45 -99 -16 4 95 363 150 -241 -564 -431 -160 -83 17 76 55 23 29 13 23 32 111 60 42 127 103 119 230 150 252 368 322 326 307 290 174 108 100 -24 -11 -56 -65 -58 -53 -89 -43 -65 -68 -35 -100 -70 -45 -49 -26 6 -79 -89 -7 -10 -52 -59 -52 -46 -26 0 -40 -28 -31 -120 -12 28 -20 -21 -8 -15 -14 -16 -31 -29 -53 9 62 8 -13 -28 18 6 -18 62 49 11 76 66 46 84 62 44 39 61 41 46 74 5 -18 -5 54 60 181 429 338 111 -326 -433 -84 61 127 70 139 167 148 159 183 200 170 181 224 192 276 285 345 361 376 438 398 468 443 375 402 283 227 117 112 100 61 56 32 83 27 37 59 50 57 26 75 62 66 23 11 45 -1 52 157 88 61 75 81 47 62 45 76 104 45 52 95 49 50 91 36 57 88 31 60 101 25 86 103 16 10 12 20 17 12 22 13 26 -8 -14 10 -33 46 11 -18 60 38 27 -1 -66 -54 7 52 -45 11 -21 -28 -48 -16 298 511 144 -362 -449 -240 -112 -94 -39 -40 -47 -27 -32 13 -14 -64 -48 23 28 72 89 29 152 160 201 306 294 272 233 194 119 13 -59 -101 -138 -173 -107 -129 -119 -143 -141 -123 -156 -144 -146 -121 -149 -211 -148 -128 -140 -191 -145 -86 -141 -144 -159 -162 -146 -146 -149 -161 -126 -161 -169 -188 -197 -151 -151 -180 -183 -149 -143 -175 -181 -178 -191 -142 -150 -158 -191 -212 -178 -182 -170 -187 -197 -152 -134 -201 -199 -96 -136 -136 -31 -31 -50 -96 -104 -103 -89 -106 -113 -59 -102 -113 -82 -49 119 472 5 -505 -289 -415 -194 -64 -151 -69 -87 -54 -47 6 -9 -5 -21 -36 39 -17 41 150 114 205 252 245 305 249 228 243 131 62 -37 -46 -45 -100 -161 -170 -77 -117 -145 -103 -110 -44 -100 -121 -9 -80 -62 -4 -28 -36 -33 -83 -78 -50 -99 -83 -85 -10 -15 3 -29 -93 -36 -31 -4 -2 -21 -4 22 63 40 7 0 52 40 76 76 32 95 79 86 52 89 89 31 52 17 83 94 22 14 154 149 220 531 -11 -545 -303 -62 91 106 58 74 124 148 124 113 120 150 114 76 150 195 191 216 267 315 284 391 284 363 235 226 168 53 73 1 31 -38 -43 -35 -23 -42 -57 -15 -22 -86 -53 -9 -33 18 -33 -47 -66 -88 -101 -207 -227 -269 -285 -203 -268 -269 -246 -276 -193 -236 -244 -208 -249 -212 -237 -226 -217 -248 -204 -218 -168 -172 -206 -179 -160 -189 -174 -193 -193 -149 -183 -135 -125 -157 -127 -119 -145 -159 -61 -78 -96 -109 -75 -2 -76 -103 -51 -17 -9 52 68 7 -19 -29 40 8 21 -9 19 3 71 1 258 341 124 277 -266 -481 -103 -8 129 101 67 74 103 132 146 124 180 163 167 199 257 241 263 279 322 398 343 427 312 371 301 301 215 147 150 94 91 66 69 26 61 99 62 60 56 57 82 99 65 31 59 77 32 65 82 90 65 95 69 28 52 97 77 92 93 20 79 103 70 74 55 39 63 82 64 55 62 57 55 84 54 34 36 46 37 50 48 36 37 28 37 72 43 55 47 45 60 55 52 105 51 5 28 31 40 5 33 2 52 26 74 56 -9 532 -123 -542 -283 -583 -300 -231 -259 -186 -186 -168 -151 -123 -124 -88 -101 -120 -74 -86 -23 -43 26 90 42 144 62 143 36 76 -6 -93 -59 -175 -130 -140 -159 -205 -180 -198 -181 -198 -173 -157 -149 -140 -159 -112 -154 -196 -158 -163 -170 -136 -164 -152 -162 -193 -148 -122 -149 -176 -147 -123 -157 -151 -151 -100 -158 -136 -141 -145 -134 -138 -133 -164 -130 -121 -120 -106 -110 -105 -96 -130 -102 -59 -78 -22 -83 -105 -73 -60 -72 -82 -65 -100 -37 -85 -8 -101 -13 363 -108 -12 -163 -600 -161 -108 -115 -40 -68 -67 -28 -6 -5 24 0 -15 28 29 78 63 126 147 177 240 205 290 200 250 154 154 100 -16 30 -67 -31 -37 -40 -66 -46 -22 -47 -35 -24 -34 -32 3 -8 -7 -27 -19 24 28 -16 46 -20 -21 36 11 9 35 34 28 46 19 53 38 24 65 70 76 82 53 27 54 84 104 92 43 79 66 100 44 83 134 113 106 115 129 123 72 93 32 52 90 73 86 46 8 148 114 395 507 108 -143 -422 -310 4 26 104 108 100 61 104 114 66 88 119 110 148 123 235 177 246 240 288 388 314 372 252 320 235 149 122 20 15 -35 -65 -72 -5 -77 -63 -37 -114 -66 -21 -71 -78 -93 -46 -6 -74 -68 -45 -74 -73 -76 -146 -75 -112 -50 -28 -128 -45 -84 -124 -74 -70 -48 -54 -89 -90 -54 -96 -109 -76 -95 -53 -105 -132 -83 -52 -117 -106 -87 -127 -67 -66 -94 -54 -96 -89 -126 -60 -42 -140 -86 -110 -86 -63 -50 -61 -138 -89 -74 -65 -101 -114 -57 -89 -96 -53 -33 -74 -77 -97 -132 -112 -121 -91 -72 -121 -89 -56 -137 176 377 110 -327 -637 -449 -243 -120 -78 -116 -69 -72 -110 -141 -67 -36 -55 -49 -52 0 -63 64 119 -10 156 198 182 269 226 155 120 10 -53 -100 -159 -184 -216 -155 -171 -241 -184 -233 -221 -201 -191 -176 -216 -208 -180 -164 -196 -275 -209 -147 -188 -228 -202 -201 -246 -240 -161 -217 -252 -250 -184 -203 -250 -222 -237 
#II[uV]
18741 16755 15134 13120 11469 9491 7816 5644 4124 1890 407 424 443 413 387 410 372 390 401 377 397 367 351 389 420 454 447 458 492 477 430 382 383 360 361 371 357 358 290 305 238 300 294 864 1425 629 -158 -115 143 187 269 252 283 258 209 279 279 247 306 323 277 340 296 408 453 549 505 489 652 653 578 506 452 327 304 194 188 161 87 116 138 112 93 124 106 99 89 108 86 -22 40 83 40 -5 15 22 -47 -38 -12 -14 -37 -43 -41 -67 -100 -111 -142 -108 -115 -147 -104 -121 -131 -153 -198 -130 -138 -150 -140 -137 -156 -143 -197 -194 -144 -121 -149 -139 -144 -138 -140 -97 -86 -102 -134 -93 -83 -67 -29 -23 13 -52 -71 79 71 3 -35 -72 -52 -128 -89 -11 -93 -63 -78 -7 56 647 936 63 -582 -441 -223 -86 -145 -85 -56 -129 -64 -3 -18 3 -13 42 29 126 85 91 211 319 360 424 459 453 448 376 265 192 139 85 36 7 42 29 -47 -24 13 54 64 55 9 36 57 32 17 50 72 27 31 34 15 -14 3 49 1 38 12 -7 34 -49 -22 76 34 51 48 81 67 58 94 87 21 94 104 99 149 150 156 178 175 208 280 331 367 277 249 229 148 221 216 154 128 196 173 182 175 414 964 932 -30 -438 -124 123 196 100 220 217 177 252 244 142 261 279 197 312 338 397 411 459 534 643 652 674 624 542 526 424 341 292 291 179 176 202 196 167 186 197 200 209 218 197 183 227 209 238 218 198 212 188 150 184 150 169 217 138 83 184 145 153 157 132 76 48 133 135 116 134 80 102 106 146 109 156 213 220 179 189 202 161 120 60 79 88 112 105 53 98 28 65 66 609 1129 510 -353 -409 -124 9 61 -49 35 41 59 52 -14 77 111 10 51 110 167 120 196 280 319 422 375 293 338 255 159 55 -42 -153 -231 -269 -265 -301 -275 -313 -288 -352 -335 -304 -373 -307 -329 -352 -375 -390 -408 -482 -507 -452 -489 -500 -506 -531 -526 -586 -586 -639 -675 -646 -669 -681 -697 -695 -710 -788 -787 -848 -799 -834 -904 -860 -843 -898 -919 -914 -916 -910 -917 -909 -956 -932 -903 -916 -919 -951 -903 -967 -1032 -1019 -1076 -1054 -1128 -1061 -1100 -1076 -1170 -1011 -1050 -769 11 -941 -1460 -1064 -1249 -1115 -1156 -1131 -1157 -1140 -1141 -1148 -1121 -1121 -1120 -1120 -1083 -1083 -1084 -1049 -1012 -995 -942 -923 -827 -911 -853 -936 -1015 -1027 -1129 -1103 -1246 -1156 -1243 -1191 -1201 -1196 -1230 -1213 -1206 -1196 -1201 -1194 -1192 -1188 -1190 -1170 -1211 -1177 -1155 -1149 -1144 -1129 -1111 -1122 -1123 -1079 -1086 -1070 -1054 -1046 -1020 -1008 -975 -979 -899 -939 -978 -886 -859 -899 -874 -899 -830 -876 -830 -826 -882 -813 -810 -774 -718 -708 -640 -648 -606 -602 -580 -565 -594 -651 -651 -608 -616 -604 -532 -562 -551 -587 -454 -346 116 662 -61 -783 -772 -501 -293 -294 -234 -243 -242 -204 -196 -133 -144 -150 -79 -57 4 51 70 141 204 258 327 333 335 301 236 133 40 -51 -101 -173 -178 -156 -192 -229 -186 -193 -162 -168 -165 -177 -178 -199 -207 -237 -199 -209 -198 -225 -177 -235 -205 -201 -233 -256 -162 -196 -184 -165 -163 -225 -172 -198 -156 -144 -157 -183 -185 -170 -140 -186 -112 -132 -138 -166 -104 -89 -94 -71 -41 -18 -52 -134 -156 -186 -206 -223 -171 -173 -188 -178 -239 -220 -168 158 761 408 -470 -657 -346 -183 -129 -185 -109 -95 -30 -76 -79 -33 -2 0 13 -25 96 113 145 252 322 361 444 419 415 340 228 169 54 -3 -49 -126 -127 -183 -159 -145 -169 -164 -82 -130 -150 -117 -93 -106 -105 -94 -123 -112 -74 -138 -77 -54 -58 -80 -91 -23 40 10 70 31 82 74 88 108 112 116 133 167 143 150 263 216 249 272 237 205 287 272 299 300 315 304 311 294 321 326 315 294 364 327 375 380 440 425 496 476 444 385 364 337 434 381 411 374 429 345 417 467 827 1538 983 182 170 324 594 488 578 548 568 552 583 612 622 638 665 672 715 685 762 820 888 974 1039 1074 1029 1037 988 903 956 733 737 678 726 620 660 612 654 654 642 640 634 677 708 668 669 632 671 690 675 591 633 635 648 644 639 630 661 636 642 642 651 677 656 611 634 617 649 601 629 597 615 565 572 593 606 557 549 504 518 485 534 511 548 447 547 473 522 501 501 570 572 565 553 521 451 370 444 399 387 358 393 358 399 370 370 627 881 1156 335 -195 170 217 376 318 304 311 342 340 339 337 399 385 428 434 516 471 514 555 617 679 652 683 684 587 566 462 411 204 242 153 200 109 125 54 33 105 81 101 87 40 74 73 97 63 80 71 59 49 3 40 17 7 22 63 5 -13 32 17 57 57 12 -12 -26 71 50 14 61 3 23 9 59 81 98 101 1 107 84 12 2 -54 -38 -89 -77 -73 -16 -65 -7 -22 38 446 776 337 -463 -516 -161 -118 -15 -36 -7 -26 11 17 13 29 79 58 71 111 154 163 249 271 387 490 489 519 516 428 329 214 203 98 76 14 9 -37 -16 -70 -23 -8 -8 -9 -15 -42 -6 -17 -2 -7 -32 -53 5 -32 -28 -12 -27 -49 -15 -70 -63 2 -12 -102 19 10 20 33 43 38 36 47 35 -9 68 53 79 73 47 18 -4 -45 -58 -31 -31 -19 13 -18 0 32 -5 -124 -107 -159 -154 -182 -167 -236 -214 -208 -166 -212 -123 142 590 512 -263 -654 -318 -224 -117 -161 -111 -133 -43 -54 -3 -6 21 24 68 58 171 162 297 267 384 430 452 555 507 457 455 284 219 147 65 31 45 -11 2 0 -26 0 -4 -48 6 -42 -29 -44 -24 -53 -67 -59 -75 -101 -51 -95 -92 -95 -99 -142 -121 -146 -103 -112 -119 -120 -89 -129 -118 -120 -148 -129 -104 -139 -94 -119 -144 -111 -104 -183 -184 -168 -150 -206 -175 -201 -188 -229 -219 -265 -208 -229 -167 -204 -202 -176 -208 -273 -307 -424 -373 -410 -368 -468 -382 -462 -413 -478 -452 -224 378 365 -382 -811 -711 -612 -542 -540 -515 -513 -501 -525 -469 -532 -519 -540 -487 -472 -420 -444 -415 -326 -260 -233 -131 -144 -161 -195 -238 -347 -459 -584 -622 -747 -722 -753 -748 -807 -794 -816 -807 -818 -826 -828 -779 -841 -857 -859 -823 -872 -877 -880 -820 -891 -868 -870 -877 -868 -853 -862 -835 -840 -834 -836 -835 -820 -809 -815 -805 -831 -833 -833 -845 -829 -812 -822 -772 -801 -791 -798 -812 -796 -767 -783 -743 -784 -780 -766 -774 -759 -717 -745 -626 -626 -631 -660 -752 -776 -781 -742 -747 -749 -694 -736 -771 -741 -633 -575 90 139 -653 -832 -1010 -802 -611 -708 -612 -649 -576 -579 -530 -553 -513 -550 -508 -426 -407 -355 -250 -196 -88 -51 21 43 72 -17 21 -147 -221 -337 -406 -413 -407 -512 -477 -454 -403 -420 -350 -407 -340 -378 -339 -320 -337 -311 -282 -276 -260 -280 -248 -255 -222 -231 -205 -200 -149 -142 -131 -164 -175 -100 -84 -45 -6 -76 32 17 36 51 68 82 145 90 173 187 211 261 260 219 165 150 172 87 143 100 193 107 192 91 304 198 454 1272 466 -289 -142 6 246 186 222 160 266 275 301 290 308 326 334 294 407 432 471 499 556 629 617 700 638 734 585 536 492 321 329 211 238 163 132 142 166 119 110 91 67 23 42 30 14 -29 -95 -233 -358 -515 -603 -700 -735 -751 -804 -776 -768 -788 -754 -750 -708 -737 -707 -705 -709 -659 -650 -626 -623 -652 -570 -564 -529 -542 -508 -522 -476 -500 -500 -499 -459 -439 -439 -438 -413 -474 -446 -424 -423 -437 -362 -390 -371 -401 -403 -359 -345 -388 -302 -275 -243 -187 -174 -266 -278 -313 -279 -271 -265 -308 -251 -279 -201 -241 -30 56 354 804 36 -561 -256 -142 -41 -16 -47 -41 28 31 72 67 154 127 172 181 277 254 350 355 446 512 520 663 550 605 509 464 418 309 311 201 227 195 198 169 207 247 234 219 266 320 292 295 306 297 301 317 312 320 318 347 360 361 380 316 398 433 406 428 428 383 423 415 430 440 434 387 455 453 471 458 481 478 486 477 497 464 497 498 503 511 536 539 558 551 579 571 615 606 657 673 667 737 684 790 681 654 666 633 669 611 664 633 727 692 809 765 808 1426 685 675 596 107 593 554 615 671 680 719 756 772 827 887 881 927 938 928 1003 983 1065 1119 1096 1198 1115 1209 1079 1152 1025 949 953 809 868 766 826 758 791 767 793 764 802 825 816 853 812 820 813 780 804 822 789 779 785 815 774 754 783 799 779 749 771 749 765 789 769 800 758 750 756 759 749 768 733 707 727 711 722 706 718 718 730 687 746 761 747 796 711 710 684 647 652 606 621 556 640 555 705 537 760 852 665 1374 625 -47 557 469 511 541 530 513 569 603 588 591 593 547 620 595 674 630 736 761 795 871 824 953 816 892 742 668 639 502 518 397 419 397 369 336 356 361 336 331 345 321 350 368 350 346 333 320 340 330 330 338 319 300 318 325 289 273 317 245 286 260 274 257 281 282 285 251 280 237 251 240 213 225 217 179 237 207 244 166 244 235 256 236 266 280 213 99 123 52 71 69 45 30 27 -34 104 22 344 623 473 253 -246 -403 -26 -53 10 8 27 5 57 30 18 0 81 38 119 91 154 162 281 265 339 404 396 447 368 417 310 162 114 -68 -45 -124 -126 -167 -156 -182 -196 -171 -186 -162 -119 -189 -163 -209 -171 -188 -201 -206 -212 -227 -219 -252 -256 -232 -246 -247 -186 -277 -228 -222 -230 -240 -217 -252 -201 -230 -214 -201 -200 -231 -190 -200 -184 -226 -220 -273 -210 -240 -207 -230 -247 -210 -206 -262 -193 -260 -206 -253 -215 -249 -287 -242 -240 -247 -223 -242 -211 -274 -241 -272 -252 -260 -219 -227 -140 -121 -113 -123 -137 -217 -202 -263 -248 -275 -261 -253 -256 -254 -213 -276 -20 368 481 43 -556 -578 -366 -285 -248 -265 -239 -266 -264 -292 -267 -255 -229 -273 -216 -175 -221 -124 -46 -82 59 96 145 188 208 130 65 -83 -159 -238 -285 -339 -340 -372 -330 -396 -340 -361 -303 -333 -291 -305 -306 -318 -304 -306 -301 -407 -348 -322 -313 -383 -337 -358 -355 -355 -309 -340 -358 -395 -339 -375 -408 -421 -406 
#III[uV]
19284 16992 15533 13355 11690 9594 7893 5576 4110 2190 324 340 368 318 306 309 309 322 283 327 270 296 317 244 326 345 361 330 326 371 302 271 213 193 276 204 178 270 191 210 125 167 72 291 867 785 377 135 103 97 101 79 100 81 74 107 60 74 113 72 122 82 -22 40 79 142 138 35 161 184 141 156 54 71 88 15 -2 -21 -50 -21 -30 -47 1 12 -33 -47 -55 -30 -66 -132 -99 -92 -84 -96 -117 -122 -171 -187 -113 -106 -159 -155 -152 -126 -180 -224 -201 -193 -186 -200 -220 -207 -173 -195 -254 -201 -189 -176 -182 -212 -201 -172 -238 -216 -162 -188 -196 -186 -172 -168 -191 -156 -140 -118 -159 -106 -114 -86 -47 -54 -21 -85 -78 21 -6 -54 -95 -94 -83 -128 -105 -62 -98 -112 -148 -156 -203 50 511 397 -22 -155 -174 -147 -187 -182 -175 -244 -176 -118 -149 -129 -143 -94 -115 -95 -141 -127 -48 3 20 39 20 71 78 59 51 70 10 36 -13 -44 8 24 -20 -35 10 61 14 11 20 36 11 31 23 52 52 12 38 10 3 28 42 46 -15 42 0 60 73 14 -4 108 107 25 44 92 92 121 84 106 93 95 145 178 149 209 217 176 168 208 302 343 306 322 246 226 198 228 265 247 196 241 229 167 117 157 606 922 477 131 198 219 214 138 202 199 162 186 191 134 188 217 217 213 229 237 237 274 282 314 362 352 274 330 310 295 255 220 218 210 234 210 204 230 229 196 229 252 189 231 232 188 187 177 193 246 200 173 188 141 162 145 174 194 119 164 114 124 164 84 -56 -24 23 5 26 8 -26 -31 -37 13 -29 32 68 42 46 49 35 16 -14 -76 -67 -12 -36 43 31 -17 -23 -4 -149 60 645 598 149 -22 -25 -31 -3 -83 -71 -56 -92 -57 -92 -42 -28 -98 -56 -62 -37 -69 -25 0 -37 35 56 -37 39 43 -40 -54 -149 -194 -246 -267 -173 -228 -244 -285 -228 -287 -303 -240 -235 -244 -271 -291 -300 -292 -264 -405 -411 -290 -325 -391 -408 -416 -472 -451 -432 -477 -471 -496 -525 -487 -505 -532 -522 -600 -586 -593 -580 -587 -686 -620 -607 -669 -653 -688 -689 -707 -731 -724 -705 -699 -692 -677 -724 -768 -734 -812 -808 -874 -854 -880 -885 -867 -903 -899 -905 -860 -1012 -811 -253 -475 -690 -837 -939 -886 -940 -924 -962 -931 -962 -940 -926 -921 -914 -932 -930 -924 -936 -912 -889 -897 -900 -849 -830 -862 -795 -878 -841 -857 -899 -891 -912 -900 -949 -905 -930 -926 -914 -904 -897 -899 -891 -871 -901 -880 -863 -849 -847 -860 -857 -819 -797 -800 -762 -789 -719 -721 -723 -710 -646 -624 -616 -607 -579 -596 -488 -481 -545 -454 -438 -440 -425 -463 -407 -450 -405 -414 -439 -369 -379 -346 -304 -300 -230 -233 -252 -245 -186 -208 -179 -210 -230 -220 -180 -197 -206 -171 -94 -151 -145 -194 24 671 568 150 0 77 83 67 94 78 117 119 126 159 162 177 182 231 218 305 280 205 269 332 349 316 342 331 274 305 216 181 203 180 202 178 139 173 180 131 104 98 145 103 158 94 50 32 41 33 60 -1 63 25 40 40 -2 39 67 42 100 88 73 51 65 86 101 75 53 37 90 106 53 -8 102 89 27 12 82 131 101 90 136 133 98 26 10 -5 14 -40 -26 -17 5 -8 -90 -30 -101 -81 496 608 184 -26 -8 -26 -12 -73 -33 -22 -52 5 -5 -74 22 -31 -26 -58 -60 21 -45 -18 72 52 107 52 30 68 33 -2 -6 -90 -135 -106 -83 -151 -140 -154 -214 -104 -148 -175 -107 -223 -203 -239 -162 -182 -212 -187 -178 -218 -189 -179 -207 -216 -217 -232 -111 -93 -54 -96 -99 -122 -103 -39 -16 -43 -12 20 8 -34 36 44 64 80 49 6 69 38 94 82 92 73 117 87 77 101 96 78 134 98 151 157 217 173 234 200 193 200 148 63 189 177 188 159 215 172 214 50 285 891 759 535 307 203 390 301 314 287 315 313 328 365 345 351 408 366 436 398 420 467 481 509 522 581 584 605 585 538 542 505 539 459 453 445 478 492 448 452 495 446 458 456 501 524 504 467 465 470 493 434 476 480 536 464 465 534 453 422 468 471 484 473 498 438 493 468 455 426 480 465 451 396 439 443 423 420 404 345 361 321 387 357 385 296 352 320 377 362 366 414 391 369 357 336 266 236 267 222 234 209 268 202 199 208 134 123 546 910 519 210 214 179 211 178 182 147 132 115 76 145 176 102 191 165 167 197 233 204 274 210 219 190 202 257 229 174 172 90 83 41 79 60 51 -25 89 44 52 67 14 43 71 65 84 93 46 75 91 86 84 64 108 63 76 86 75 118 126 122 68 94 95 93 106 56 114 102 134 125 92 99 164 144 162 158 143 124 99 96 56 12 34 -23 14 13 28 33 9 -26 -56 83 625 578 100 -84 0 -35 -32 -112 -62 -50 -18 3 -10 -2 -31 -1 29 -16 51 44 18 121 134 121 167 193 209 137 154 106 102 123 88 70 74 20 36 19 19 57 60 25 85 28 38 32 23 -13 47 36 13 -21 24 47 25 -3 11 -70 -22 30 19 18 31 -18 40 55 52 54 50 64 66 19 122 44 17 65 60 46 -23 -52 -39 -94 -81 -31 -62 -84 -47 -52 -67 -169 -146 -220 -195 -228 -241 -241 -195 -203 -220 -272 -304 -287 251 401 63 -221 -234 -285 -244 -232 -251 -300 -191 -213 -186 -207 -149 -157 -155 -133 -105 -123 -48 -94 8 -8 53 86 63 81 53 1 -8 30 -47 -68 -16 -67 -30 -83 -54 -37 -64 -99 -51 -68 -104 -107 -90 -77 -78 -104 -74 -153 -209 -183 -154 -170 -180 -189 -184 -191 -179 -216 -164 -173 -185 -178 -169 -211 -184 -186 -193 -171 -154 -221 -169 -197 -207 -199 -195 -180 -170 -223 -187 -223 -202 -256 -211 -250 -218 -196 -214 -216 -184 -237 -247 -301 -305 -358 -318 -418 -421 -422 -394 -441 -385 -430 -435 -522 -132 220 -19 -361 -470 -499 -448 -501 -474 -466 -474 -493 -482 -518 -454 -492 -511 -500 -492 -533 -445 -479 -420 -434 -437 -439 -433 -429 -433 -466 -472 -524 -520 -608 -548 -646 -618 -687 -651 -674 -683 -661 -681 -681 -657 -692 -646 -710 -694 -732 -686 -734 -734 -749 -723 -710 -715 -721 -706 -713 -673 -713 -672 -667 -647 -623 -657 -664 -625 -648 -684 -689 -669 -647 -633 -630 -629 -651 -633 -607 -600 -618 -585 -613 -555 -586 -627 -631 -572 -559 -621 -608 -490 -594 -600 -610 -656 -671 -678 -653 -640 -636 -635 -633 -657 -658 -583 -694 -381 134 -147 -543 -594 -608 -547 -557 -542 -562 -521 -532 -537 -544 -507 -528 -471 -465 -390 -396 -401 -311 -294 -304 -223 -262 -177 -245 -222 -278 -284 -300 -360 -368 -307 -351 -307 -376 -286 -275 -246 -296 -295 -277 -217 -311 -257 -249 -278 -247 -223 -247 -165 -177 -172 -131 -122 -115 -139 -127 -135 -134 -81 -64 -52 -40 -4 -54 37 -4 -26 10 61 82 93 49 96 110 179 166 180 132 112 61 83 56 91 83 109 12 169 77 150 49 233 740 478 256 161 68 154 80 164 86 141 126 176 176 188 175 220 218 257 237 280 282 288 314 333 308 353 370 350 309 323 267 256 209 206 201 176 178 189 161 167 106 89 110 95 39 48 -47 -61 -185 -292 -427 -501 -493 -508 -481 -518 -573 -500 -518 -507 -474 -514 -500 -462 -496 -459 -447 -413 -399 -406 -404 -366 -346 -361 -370 -302 -343 -315 -310 -325 -306 -265 -290 -255 -303 -288 -317 -319 -305 -278 -278 -300 -312 -275 -291 -327 -356 -268 -285 -251 -257 -233 -240 -242 -273 -259 -284 -319 -279 -286 -299 -271 -282 -272 -243 -289 -285 229 527 303 -80 -153 -133 -171 -118 -114 -116 -75 -100 -73 -56 -25 -36 4 -18 19 13 87 76 123 114 176 236 237 233 208 163 202 162 160 107 136 129 129 142 145 148 172 159 209 262 209 195 241 265 242 240 279 254 235 257 294 265 311 287 345 336 328 335 335 362 344 311 359 365 379 347 392 370 406 402 419 421 431 393 443 430 461 452 465 461 488 502 520 523 541 499 571 551 609 628 607 682 632 685 629 649 637 602 629 605 631 631 674 665 734 709 817 894 809 1218 879 690 894 785 874 857 866 888 907 896 952 975 982 1047 1012 1015 1027 1026 1039 1028 1054 1054 1053 1065 1043 1075 1031 1042 1012 985 998 907 985 963 971 966 974 963 975 982 966 994 972 933 967 977 963 985 960 915 950 967 936 947 931 922 928 926 919 872 922 940 920 901 916 886 897 905 883 907 866 871 857 833 843 813 829 824 827 817 849 821 826 818 794 816 758 707 724 689 686 656 678 641 713 638 774 489 773 1386 789 553 718 578 627 581 599 581 598 609 594 567 594 562 592 565 596 566 609 614 618 631 619 662 615 642 588 514 538 518 488 465 451 434 410 402 402 384 383 366 370 356 383 365 359 353 360 339 315 302 347 292 339 321 282 313 279 238 282 216 239 240 220 219 256 217 215 174 198 183 224 185 128 120 125 136 157 141 143 122 160 101 143 129 151 151 89 26 30 20 18 -21 -28 -56 -18 -42 -43 -92 -50 116 364 397 176 -92 -30 -80 -94 -100 -73 -56 -47 -83 -48 -88 -37 -71 -29 -31 -80 -14 35 24 50 15 81 75 115 96 74 13 -7 -89 -61 -89 -61 -94 -150 -105 -133 -134 -71 -96 -98 -118 -85 -115 -124 -181 -126 -138 -167 -152 -146 -176 -110 -156 -133 -196 -158 -148 -183 -138 -105 -166 -147 -203 -147 -141 -124 -147 -104 -121 -113 -105 -131 -120 -88 -190 -157 -122 -100 -142 -120 -142 -139 -168 -139 -163 -117 -127 -154 -207 -147 -156 -130 -161 -160 -192 -149 -135 -151 -197 -186 -159 -105 -169 -50 -24 -59 -90 -62 -139 -105 -131 -135 -154 -169 -180 -134 -164 -156 -138 -196 -9 370 370 81 -129 -122 -165 -169 -148 -169 -193 -153 -151 -199 -219 -173 -224 -164 -175 -157 -189 -166 -71 -97 -102 -36 -81 -17 -25 -54 -93 -106 -138 -126 -155 -124 -217 -159 -154 -156 -128 -81 -132 -99 -129 -90 -110 -124 -141 -104 -131 -139 -174 -125 -154 -135 -156 -109 -115 -148 -123 -106 -144 -155 -171 -157 -198 -169 
#avR[uV]
-9099 -8259 -7367 -6443 -5624 -4693 -3870 -2855 -2069 -795 -244 -254 -259 -253 -233 -256 -217 -229 -259 -213 -261 -218 -193 -267 -256 -281 -266 -293 -328 -292 -279 -246 -277 -263 -222 -269 -267 -222 -194 -200 -176 -216 -258 -719 -991 -236 347 183 -91 -138 -218 -212 -233 -217 -172 -225 -248 -210 -249 -287 -216 -299 -307 -388 -413 -478 -436 -472 -572 -561 -507 -428 -425 -291 -260 -186 -189 -172 -112 -127 -153 -136 -93 -118 -123 -123 -116 -123 -119 -43 -90 -130 -83 -42 -74 -84 -38 -55 -44 -38 -42 -34 -34 4 10 0 41 11 22 47 -5 17 44 55 71 29 44 62 49 31 55 56 78 86 63 27 50 46 58 54 44 19 16 43 54 40 26 24 5 -4 -24 9 32 -68 -74 -31 -12 25 10 64 37 -20 44 7 3 -70 -157 -621 -680 135 571 363 136 12 51 -5 -31 6 -24 -55 -56 -67 -58 -89 -87 -174 -156 -155 -235 -317 -350 -404 -449 -417 -409 -346 -240 -157 -134 -67 -42 -29 -38 -16 37 6 -7 -23 -57 -49 0 -18 -51 -16 -6 -23 -46 -21 -12 -29 -13 28 17 -25 -9 -17 -12 38 2 56 19 -22 19 -38 -26 -35 -21 2 -52 -33 25 -46 -31 -10 -74 -46 -47 -90 -91 -104 -128 -159 -213 -116 -126 -116 -49 -107 -83 -30 -30 -75 -58 -98 -116 -335 -661 -471 269 504 223 -14 -89 -30 -118 -117 -95 -159 -148 -75 -167 -170 -88 -205 -223 -278 -292 -322 -393 -486 -471 -498 -486 -376 -371 -277 -213 -182 -181 -74 -59 -97 -94 -52 -71 -99 -85 -83 -123 -82 -67 -133 -115 -149 -121 -74 -111 -101 -56 -113 -69 -96 -129 -40 -23 -101 -87 -91 -75 -90 -104 -60 -121 -132 -103 -129 -94 -118 -125 -139 -124 -140 -179 -199 -155 -165 -184 -153 -128 -98 -113 -95 -131 -83 -38 -107 -40 -68 -141 -578 -806 -211 428 398 111 -24 -63 7 -70 -70 -106 -81 -31 -98 -125 -59 -79 -141 -186 -155 -209 -279 -337 -404 -347 -312 -318 -233 -179 -82 -32 56 108 136 178 187 153 171 174 208 183 184 255 185 193 206 225 244 276 279 301 306 326 305 302 323 290 360 370 400 439 398 406 437 444 429 449 488 493 551 508 540 561 549 540 563 592 570 572 556 551 547 603 583 557 578 557 567 536 560 627 582 649 613 685 627 648 626 717 580 544 363 -137 704 1115 645 779 671 686 668 676 674 660 677 658 661 663 653 618 621 616 593 568 547 492 498 412 480 456 497 594 598 679 657 789 706 768 738 736 733 772 761 758 746 755 758 741 748 759 745 787 747 726 740 745 729 730 727 764 719 725 714 730 734 712 704 686 681 655 698 706 659 639 679 661 667 627 650 627 619 662 628 620 601 565 558 525 531 480 480 487 461 504 546 536 498 526 505 429 476 504 512 381 249 -104 -327 345 859 772 540 335 328 281 282 301 264 259 213 225 239 170 172 104 101 69 -38 -70 -92 -152 -175 -164 -135 -98 18 67 142 203 263 279 245 262 316 276 259 214 217 237 229 258 246 233 254 220 226 228 225 209 248 226 222 232 276 195 217 234 209 200 251 205 241 207 182 184 202 230 223 167 182 163 177 152 173 145 155 145 116 109 84 101 147 161 183 213 203 158 165 191 174 194 205 117 -199 -512 -104 562 644 342 169 123 149 92 83 4 79 76 -3 14 -15 -27 -3 -127 -102 -168 -262 -285 -335 -390 -393 -400 -306 -211 -170 -57 -41 -18 72 86 107 89 68 62 112 7 42 96 5 -8 -12 24 3 16 18 -15 29 -16 -35 -45 -27 -17 -92 -95 -56 -97 -79 -132 -135 -140 -128 -121 -138 -139 -156 -138 -167 -245 -194 -216 -232 -212 -202 -253 -253 -252 -259 -269 -267 -253 -250 -283 -275 -266 -254 -297 -278 -299 -302 -331 -339 -379 -376 -347 -285 -290 -305 -340 -292 -317 -294 -321 -259 -309 -442 -684 -1092 -603 85 -17 -222 -399 -337 -421 -404 -410 -396 -418 -430 -449 -462 -460 -489 -497 -486 -552 -586 -647 -719 -778 -783 -737 -735 -696 -634 -684 -480 -468 -448 -499 -397 -421 -365 -429 -428 -395 -417 -404 -449 -457 -406 -416 -398 -438 -455 -428 -374 -395 -395 -380 -411 -406 -363 -434 -425 -408 -406 -409 -440 -407 -392 -387 -383 -421 -388 -389 -364 -389 -367 -353 -371 -394 -346 -347 -331 -337 -325 -340 -332 -355 -299 -371 -313 -333 -320 -318 -363 -376 -380 -374 -353 -318 -251 -311 -288 -270 -253 -259 -257 -300 -266 -303 -565 -608 -701 -75 300 -63 -127 -270 -229 -213 -238 -276 -282 -301 -265 -311 -334 -332 -351 -433 -372 -398 -453 -479 -574 -542 -588 -583 -459 -451 -375 -324 -158 -201 -132 -161 -78 -99 -66 11 -83 -55 -67 -79 -18 -39 -41 -55 -16 -57 -33 -13 -6 38 -8 36 23 15 -20 32 72 30 43 -23 -10 35 58 80 -43 6 36 5 59 23 40 22 -8 -17 -22 70 -45 -34 35 25 60 55 77 84 80 30 82 11 9 -66 -405 -463 -47 514 474 161 100 -1 -19 -24 1 -20 -15 -18 -31 -95 -59 -57 -119 -129 -141 -240 -211 -319 -429 -406 -423 -411 -359 -252 -161 -151 -37 -32 20 27 48 34 80 33 37 38 22 58 56 26 33 14 0 56 71 1 21 40 35 40 48 20 35 51 13 21 111 -3 -19 0 -5 -17 -11 -11 -15 -2 19 -7 -31 -70 -40 -16 5 -7 19 38 -15 -9 4 -45 -24 -22 -58 -28 39 33 48 56 67 46 115 116 106 56 76 -29 -285 -464 -311 294 544 201 81 -4 45 -14 -17 -52 -52 -89 -97 -96 -103 -146 -125 -223 -224 -321 -314 -380 -434 -425 -511 -475 -416 -429 -283 -223 -132 -88 -66 -53 -22 -17 -41 0 -18 -27 -1 -32 8 -23 -8 -20 15 27 7 38 24 -52 3 15 9 8 47 29 50 13 3 36 34 -2 39 33 14 55 36 7 53 16 8 59 12 0 83 86 78 64 94 81 89 87 101 114 140 98 131 60 96 110 58 85 122 154 245 213 201 158 257 185 242 220 263 234 -36 -445 -255 372 630 476 362 318 290 277 280 264 278 227 273 292 294 232 222 174 177 193 87 50 16 -87 -75 -55 -19 22 114 223 322 361 442 447 430 438 463 468 478 465 487 485 487 450 495 534 504 476 506 534 512 453 516 506 514 520 507 499 506 498 483 497 502 511 509 480 483 492 507 491 488 510 505 495 506 457 476 474 494 512 487 474 477 465 491 466 450 487 479 406 441 381 329 331 355 424 440 442 415 426 431 376 419 442 411 341 228 -281 -72 579 560 713 498 338 430 341 368 315 313 262 281 259 286 272 193 212 156 49 40 -58 -100 -133 -174 -160 -105 -132 7 79 187 226 229 253 337 324 266 260 282 227 258 192 239 230 165 209 186 143 152 148 156 166 166 136 165 144 142 79 79 63 96 134 68 57 25 4 49 -13 -19 -50 -46 -38 -40 -99 -65 -124 -131 -121 -178 -169 -153 -108 -120 -130 -59 -98 -59 -138 -101 -107 -53 -229 -174 -337 -901 -227 417 223 28 -168 -146 -140 -117 -195 -211 -212 -201 -214 -238 -224 -185 -278 -313 -331 -357 -411 -472 -450 -545 -461 -548 -410 -381 -330 -187 -201 -106 -134 -62 -44 -53 -71 -38 -26 -37 -22 31 5 -10 9 5 64 140 212 301 352 453 481 510 545 490 518 528 500 513 451 487 475 457 479 436 444 426 420 450 387 391 349 357 357 350 318 345 337 346 326 294 311 287 269 316 286 272 284 298 211 234 233 255 239 180 211 245 176 146 126 67 53 129 148 171 119 131 121 158 116 138 64 120 -114 -199 -239 -540 115 521 179 75 -44 -42 -10 -16 -65 -82 -109 -95 -167 -145 -170 -190 -267 -247 -307 -317 -384 -455 -431 -545 -431 -488 -405 -382 -316 -228 -230 -147 -159 -130 -133 -98 -134 -173 -148 -139 -161 -188 -187 -197 -186 -164 -180 -197 -172 -192 -200 -218 -212 -228 -225 -172 -225 -265 -241 -260 -261 -201 -251 -259 -250 -257 -244 -213 -259 -267 -268 -256 -271 -268 -271 -280 -275 -249 -267 -272 -270 -281 -292 -288 -297 -289 -308 -321 -329 -331 -352 -359 -364 -396 -368 -448 -366 -329 -347 -332 -355 -308 -349 -317 -390 -359 -441 -410 -399 -979 -280 -66 -156 237 -146 -161 -177 -242 -246 -275 -302 -324 -351 -399 -390 -403 -432 -421 -489 -469 -545 -604 -569 -671 -589 -676 -558 -614 -509 -428 -446 -317 -369 -313 -333 -276 -305 -284 -306 -283 -314 -333 -333 -356 -326 -353 -329 -291 -322 -329 -309 -321 -310 -331 -306 -280 -317 -338 -314 -286 -312 -313 -304 -318 -308 -349 -299 -307 -307 -307 -307 -314 -300 -271 -298 -295 -300 -299 -303 -306 -316 -278 -321 -351 -334 -386 -313 -302 -305 -293 -289 -261 -278 -228 -301 -234 -348 -217 -373 -607 -278 -680 -231 324 -198 -180 -198 -250 -230 -222 -270 -298 -291 -308 -296 -265 -324 -312 -376 -347 -431 -454 -486 -555 -514 -622 -508 -571 -448 -411 -369 -242 -274 -164 -194 -180 -164 -135 -155 -169 -144 -148 -160 -143 -158 -186 -170 -169 -152 -150 -182 -179 -156 -192 -149 -139 -177 -168 -149 -154 -175 -136 -166 -139 -164 -148 -152 -173 -177 -164 -181 -145 -139 -147 -148 -164 -155 -111 -158 -136 -172 -105 -164 -184 -184 -171 -190 -204 -168 -85 -108 -42 -62 -79 -59 -58 -36 13 -126 -68 -370 -565 -290 -55 334 357 11 13 -57 -58 -64 -33 -80 -72 -42 -44 -100 -74 -133 -107 -194 -170 -264 -252 -314 -396 -355 -409 -310 -368 -273 -155 -118 23 15 80 95 120 81 130 129 104 150 114 70 130 121 151 109 97 137 137 129 150 146 164 201 153 179 149 107 203 136 153 177 157 144 150 128 160 152 128 148 170 133 147 118 165 176 178 131 179 156 159 187 138 136 178 123 178 147 190 137 145 213 164 175 167 143 146 136 206 165 173 158 180 167 142 115 109 83 78 106 147 150 198 180 198 176 162 188 171 134 206 -78 -373 -296 142 597 513 305 202 163 190 154 169 187 217 167 146 142 161 134 87 142 30 -36 46 -108 -147 -164 -228 -217 -143 -92 36 106 169 222 262 278 263 251 319 262 297 262 267 241 240 261 263 242 235 249 341 279 235 250 306 270 279 300 297 235 279 305 323 262 289 329 322 321 
#avL[uV]
-9913 -8614 -7966 -6795 -5955 -4848 -3984 -2754 -2048 -1245 -120 -128 -147 -112 -112 -103 -123 -127 -82 -138 -72 -113 -141 -49 -116 -118 -137 -101 -80 -132 -86 -80 -21 -13 -96 -18 0 -91 -46 -58 -5 -17 75 141 -155 -471 -457 -193 -31 -4 32 46 40 47 30 32 79 49 39 89 16 88 170 163 147 132 114 209 165 141 147 96 171 92 63 81 97 102 94 79 99 103 45 49 86 97 99 84 109 120 119 134 105 93 125 133 147 168 107 99 140 134 131 92 130 168 130 139 128 126 167 146 107 118 155 135 120 100 112 143 123 100 139 119 89 127 121 116 100 98 121 108 97 67 92 59 72 52 32 43 28 59 42 17 41 56 77 58 57 64 60 57 51 80 109 152 231 273 -43 -365 -268 -65 62 104 114 139 147 180 144 116 140 131 137 115 130 158 184 173 153 155 160 172 208 154 146 128 81 26 59 6 31 48 13 -10 -3 23 -4 -34 17 15 -15 -17 16 -15 -14 -27 -16 1 -22 6 4 -35 -40 -22 16 -23 5 -64 -56 -38 -6 -70 -90 0 -19 -51 -58 -92 -37 -62 -82 -48 -93 -128 -74 -133 -139 -86 -80 -104 -162 -177 -123 -183 -121 -111 -124 -117 -157 -170 -132 -143 -142 -76 -29 49 -124 -456 -493 -351 -260 -157 -116 -88 -92 -90 -74 -59 -69 -63 -57 -77 -118 -57 -60 -38 -32 -44 -15 7 -36 -15 37 -59 -47 -82 -84 -73 -73 -120 -146 -109 -105 -146 -136 -97 -129 -147 -80 -132 -141 -74 -83 -58 -84 -147 -94 -79 -113 -49 -86 -60 -66 -125 -77 -72 -42 -47 -85 -18 94 48 43 62 31 58 67 82 90 59 83 45 38 67 43 45 66 64 75 106 107 57 93 9 -4 66 37 37 182 243 -81 -343 -326 -182 -36 36 33 59 88 77 122 83 84 81 84 103 82 117 121 130 124 139 196 175 131 184 129 83 120 82 128 117 130 132 40 77 106 128 84 111 135 88 48 91 106 115 112 97 60 164 157 64 80 141 155 150 209 158 139 157 134 173 190 146 157 184 167 205 193 169 180 170 234 190 185 220 193 231 230 252 272 269 226 232 240 218 265 292 283 329 292 364 316 353 321 336 353 361 320 354 487 426 258 4 -39 305 315 329 361 359 383 361 391 366 365 360 354 372 388 382 394 387 382 399 429 388 416 406 368 410 334 343 334 339 289 321 327 309 329 327 299 297 293 301 291 274 304 286 267 264 241 271 280 244 225 235 207 228 157 181 180 175 119 101 106 103 91 106 39 12 56 11 9 -9 -11 13 -8 12 -9 1 -1 -36 -25 -40 -54 -54 -89 -90 -50 -55 -104 -74 -118 -115 -95 -84 -127 -105 -60 -109 -181 -142 -81 20 34 -339 -599 -542 -386 -327 -230 -214 -211 -199 -238 -221 -224 -226 -234 -252 -221 -259 -215 -279 -245 -134 -166 -202 -185 -149 -174 -180 -156 -238 -195 -207 -254 -266 -291 -256 -236 -288 -273 -228 -185 -182 -227 -192 -248 -194 -154 -151 -141 -138 -159 -111 -152 -143 -143 -141 -113 -168 -148 -140 -192 -171 -155 -164 -151 -185 -179 -148 -132 -129 -182 -191 -123 -85 -158 -155 -97 -96 -134 -175 -148 -126 -156 -142 -124 -93 -88 -87 -117 -70 -59 -69 -99 -81 -29 -79 17 160 -115 -403 -420 -302 -164 -64 -52 -19 -21 -24 36 -43 -34 57 -23 31 33 45 109 35 118 144 88 128 115 157 177 101 80 87 33 88 110 43 19 60 60 81 130 21 107 110 32 164 156 186 109 135 151 131 141 149 150 152 178 175 171 220 131 98 89 111 140 159 147 93 73 102 78 62 62 109 95 63 60 55 68 96 74 98 55 68 65 78 38 59 83 61 60 68 47 65 36 33 2 39 14 37 28 -7 34 104 28 13 17 27 0 0 -5 183 128 -122 -268 -444 -221 -40 -92 -57 -24 -12 -30 -36 -37 -58 -34 -32 -76 -30 -78 -55 -38 -57 -36 -22 -2 -44 -70 -86 -90 -86 -64 -138 -170 -120 -90 -135 -148 -186 -121 -125 -173 -126 -141 -117 -147 -190 -169 -150 -129 -125 -155 -138 -159 -163 -212 -142 -145 -219 -123 -104 -146 -150 -159 -135 -170 -132 -175 -159 -131 -125 -166 -166 -143 -113 -153 -146 -120 -142 -129 -93 -102 -78 -120 -101 -111 -72 -78 -84 -116 -111 -115 -128 -105 -87 -80 -75 -41 -51 -44 -23 -40 -30 -71 -23 0 -23 50 189 -105 -332 -351 -308 -128 -70 -23 -18 -29 8 39 54 93 23 23 90 23 51 91 38 23 73 34 129 106 151 139 36 53 57 32 11 38 34 21 -5 11 52 -72 8 -11 -16 28 -23 -33 -28 -35 -62 -6 -39 -61 -61 -82 -44 -99 -59 -65 -55 -72 -125 -109 -114 -39 -65 -89 -99 -120 -21 -88 -94 -104 -123 -80 -95 -134 -103 -113 -107 -143 -70 -57 -90 -54 -39 -53 -21 -53 -50 -37 -66 -13 15 75 139 -237 -410 -332 -173 -80 -23 25 94 59 37 23 4 16 17 71 30 6 71 26 37 106 14 58 123 77 66 48 76 10 0 -1 -73 -49 -63 -70 -39 -45 -54 -31 -61 -64 -30 -93 -49 -42 -40 -25 9 -63 -62 -10 5 -38 -53 -38 -21 -18 35 -9 -29 -25 -69 -21 23 -30 -38 -30 -35 -32 -40 -48 -24 -87 -17 22 -28 -36 -37 21 29 10 78 65 21 69 75 46 68 65 107 92 141 118 137 157 123 88 98 137 166 242 358 43 -144 -194 -106 74 173 186 151 195 234 170 186 184 204 160 169 190 163 190 204 197 228 183 223 172 190 190 146 174 140 118 43 79 84 38 61 31 83 41 37 62 75 54 47 89 84 78 50 45 74 36 103 183 135 108 122 130 118 123 118 128 160 105 113 140 113 109 151 110 122 141 101 107 161 97 142 155 108 103 96 95 120 99 123 108 141 101 117 114 81 130 114 82 148 143 164 151 145 132 213 237 188 203 209 178 190 209 410 321 -38 -171 -44 114 193 176 230 217 209 223 230 248 251 194 221 267 264 282 311 237 316 290 317 372 367 352 331 313 293 242 232 209 234 187 269 244 283 253 266 280 252 268 267 268 271 217 280 283 296 247 294 324 304 289 275 276 287 280 282 255 293 255 249 229 213 253 256 222 232 267 272 246 233 227 219 243 250 237 208 194 219 201 221 184 194 237 248 185 179 262 235 177 281 284 279 280 283 287 282 266 261 287 265 272 288 266 407 427 -64 -179 126 89 207 241 202 236 237 233 242 271 267 250 253 217 252 186 218 276 213 249 278 234 283 213 237 233 204 173 131 156 161 103 94 68 149 84 65 71 93 125 88 47 151 88 93 137 109 93 106 41 49 60 15 19 15 64 56 69 52 -6 13 10 18 0 16 -21 13 45 15 -26 -41 -20 -4 -10 -16 -73 -35 -50 -22 -30 13 2 -12 -19 -33 -12 41 -73 -31 2 50 -6 -104 -244 -400 -232 -65 -31 13 -52 -6 -8 11 -26 -31 -33 -12 -52 -71 -53 -21 -44 -33 -10 0 -24 41 -34 -3 -57 -41 -77 -106 -91 -103 -87 -119 -109 -107 -106 -101 -112 -61 -55 -98 -74 -24 -41 32 13 69 113 169 199 143 140 106 116 185 115 124 130 99 160 132 109 143 105 117 87 86 94 77 81 64 96 98 48 82 77 60 75 56 36 70 35 83 81 80 95 93 66 59 119 116 89 91 126 177 96 91 99 120 111 146 155 140 119 127 179 144 154 145 145 142 171 122 273 313 -52 -125 -285 -200 24 62 150 110 91 95 89 116 109 90 102 100 81 108 119 114 88 101 99 142 83 95 37 68 46 68 6 -7 -5 -6 -22 -31 -29 -57 -42 -24 -55 -49 -76 -102 -63 -48 -87 -117 -91 -81 -123 -94 -76 -83 -114 -85 -120 -129 -146 -119 -125 -121 -120 -171 -132 -104 -144 -145 -161 -153 -164 -144 -171 -173 -178 -181 -187 -154 -194 -197 -212 -203 -213 -205 -220 -233 -241 -247 -252 -213 -263 -248 -280 -291 -273 -313 -290 -289 -289 -322 -304 -285 -294 -299 -299 -314 -310 -319 -330 -326 -413 -180 -466 -880 -581 -636 -597 -508 -566 -521 -526 -528 -529 -510 -538 -531 -542 -584 -543 -550 -525 -534 -506 -469 -505 -454 -495 -461 -503 -499 -519 -567 -536 -580 -564 -523 -572 -584 -575 -582 -577 -581 -574 -569 -558 -567 -565 -523 -560 -587 -561 -574 -565 -526 -557 -560 -549 -570 -540 -522 -538 -551 -533 -497 -539 -546 -535 -500 -537 -511 -519 -525 -508 -523 -499 -517 -493 -477 -482 -460 -470 -464 -462 -474 -475 -440 -452 -420 -438 -460 -415 -384 -398 -386 -375 -378 -358 -363 -361 -369 -394 -62 -440 -699 -476 -577 -439 -343 -371 -311 -334 -324 -313 -308 -299 -271 -297 -289 -282 -267 -258 -251 -241 -233 -220 -195 -207 -185 -207 -195 -216 -179 -218 -267 -228 -266 -241 -235 -225 -234 -224 -203 -215 -200 -197 -195 -208 -180 -184 -180 -193 -179 -145 -137 -182 -123 -179 -171 -123 -151 -135 -101 -124 -94 -96 -110 -83 -90 -115 -75 -72 -49 -57 -65 -98 -65 -22 -8 -16 -46 -39 -37 -21 -39 -38 16 -15 -11 -17 -10 16 22 31 6 16 55 51 71 32 25 96 103 223 195 -128 -270 -299 -109 17 53 99 104 86 58 75 99 57 88 78 90 88 77 157 96 105 108 118 186 116 148 68 111 80 67 65 54 38 27 -1 10 72 13 35 48 -21 14 38 23 3 10 39 87 26 35 60 39 36 50 -18 40 10 72 64 9 68 27 -9 45 38 77 46 25 17 46 3 5 18 5 39 7 -22 53 52 2 -2 27 -3 37 36 36 42 33 13 0 47 82 3 34 10 37 48 71 43 -1 31 61 60 28 -4 56 -19 -36 2 28 -6 30 4 0 11 16 38 54 6 37 50 0 186 193 -130 -349 -359 -159 -60 22 45 16 50 60 21 4 65 91 58 87 56 88 47 126 142 30 127 150 109 175 122 90 87 52 26 18 -16 -14 -46 30 -5 -43 -14 -52 -70 -34 -46 -23 -62 -49 -27 -11 -46 -71 -35 13 -31 -37 -33 -22 -68 -62 -6 -46 -72 -52 -14 -16 -46 -12 -34 
#avF[uV]
19013 16874 15333 13238 11580 9542 7855 5610 4117 2040 365 382 406 366 346 360 341 356 342 352 333 332 334 316 373 400 404 394 409 424 366 327 298 276 319 288 268 314 240 258 181 233 183 577 1146 707 109 9 123 142 185 165 192 170 142 193 169 161 210 198 200 211 136 224 266 345 322 262 406 419 360 331 253 199 196 104 92 70 18 47 53 32 47 68 36 25 17 39 9 -77 -29 -4 -21 -50 -51 -49 -109 -113 -63 -60 -98 -99 -96 -97 -140 -167 -171 -150 -151 -173 -162 -164 -152 -174 -226 -165 -164 -163 -161 -174 -179 -157 -217 -205 -153 -155 -172 -162 -158 -153 -165 -127 -113 -110 -146 -99 -98 -76 -38 -39 -4 -69 -74 50 32 -25 -65 -83 -68 -128 -97 -36 -96 -87 -113 -82 -73 348 724 230 -302 -298 -198 -116 -166 -134 -115 -187 -120 -61 -84 -63 -78 -25 -42 15 -27 -17 81 161 190 231 240 262 263 218 158 131 74 60 11 -18 25 27 -34 -30 11 57 39 33 14 36 34 32 20 51 62 19 34 22 9 6 22 48 -7 40 6 26 53 -17 -13 92 70 38 46 87 80 90 89 96 57 95 124 139 149 180 186 177 171 208 291 337 337 300 247 227 173 225 240 201 162 218 201 175 146 285 785 927 223 -153 37 171 205 119 211 208 170 219 218 138 224 248 207 262 284 317 324 367 408 478 507 513 449 436 418 359 298 256 255 195 205 206 200 198 207 197 214 230 203 214 208 208 198 208 205 222 206 180 169 162 156 157 196 166 101 174 129 138 160 108 9 11 78 70 71 71 27 35 34 80 40 94 140 131 112 119 118 88 53 -8 5 38 38 74 42 40 2 30 -41 334 887 554 -101 -215 -75 -11 29 -66 -18 -7 -16 -2 -53 17 41 -43 -2 23 65 25 85 140 140 229 215 127 189 149 59 0 -96 -173 -238 -268 -219 -264 -259 -299 -258 -320 -319 -272 -304 -276 -300 -322 -337 -341 -336 -443 -459 -371 -407 -446 -457 -474 -499 -519 -509 -558 -573 -571 -597 -584 -601 -613 -616 -694 -687 -721 -689 -710 -795 -740 -725 -783 -786 -801 -803 -809 -824 -816 -830 -816 -797 -797 -822 -860 -819 -889 -920 -947 -965 -967 -1007 -964 -1001 -988 -1037 -935 -1031 -790 -120 -708 -1075 -951 -1094 -1000 -1048 -1027 -1059 -1035 -1052 -1044 -1024 -1021 -1017 -1026 -1007 -1004 -1010 -980 -950 -946 -921 -886 -829 -887 -824 -907 -928 -942 -1014 -997 -1079 -1028 -1096 -1048 -1066 -1061 -1072 -1059 -1051 -1047 -1046 -1032 -1046 -1034 -1027 -1009 -1029 -1019 -1006 -984 -971 -965 -937 -955 -921 -900 -905 -890 -850 -835 -818 -807 -777 -787 -694 -710 -762 -670 -648 -670 -650 -681 -618 -663 -617 -620 -661 -591 -594 -560 -511 -504 -435 -440 -429 -424 -383 -386 -386 -431 -440 -414 -398 -400 -369 -367 -322 -369 -299 -270 70 667 253 -316 -386 -212 -105 -113 -69 -82 -62 -42 -35 13 8 13 51 87 111 178 175 173 236 295 338 325 339 316 255 219 128 65 50 3 12 10 -26 -27 -3 -30 -29 -35 -10 -36 -10 -52 -78 -102 -78 -88 -69 -113 -56 -104 -82 -80 -118 -108 -47 -76 -42 -38 -44 -87 -53 -56 -27 -34 -52 -73 -47 -31 -43 -97 -4 -21 -55 -76 -11 20 3 9 47 57 22 -53 -72 -96 -95 -132 -99 -95 -91 -93 -164 -125 -135 38 628 508 -142 -341 -177 -104 -70 -129 -71 -59 -41 -35 -42 -54 9 -16 -6 -41 17 67 50 117 197 207 275 235 222 204 131 83 23 -47 -92 -116 -105 -167 -150 -149 -192 -134 -115 -153 -128 -170 -148 -173 -134 -138 -167 -150 -126 -178 -133 -117 -133 -148 -154 -127 -35 -41 8 -32 -8 -23 -7 34 47 36 60 93 76 57 149 130 156 176 143 106 178 155 196 191 203 189 214 191 199 213 205 186 249 213 263 269 328 299 365 338 319 292 256 200 311 279 299 266 322 259 315 258 556 1214 871 359 238 263 492 394 446 417 441 433 456 488 484 494 537 519 576 542 591 643 684 742 781 827 807 821 786 721 749 619 638 568 590 533 569 552 551 553 569 543 546 566 604 596 586 549 568 580 584 512 554 558 592 554 552 582 557 529 555 556 568 575 577 524 563 542 552 513 555 531 533 480 506 518 514 489 476 424 440 403 461 434 467 371 449 397 449 432 434 492 481 467 455 429 359 303 355 311 310 284 330 280 299 289 252 375 714 1033 427 7 192 198 293 248 243 229 237 228 207 241 287 244 309 299 342 334 374 379 445 444 435 436 443 422 397 318 291 147 163 97 139 84 88 14 61 75 67 84 51 41 73 69 90 78 63 73 75 68 44 52 62 35 49 75 40 52 79 70 62 76 54 40 39 64 82 58 98 64 57 54 112 112 130 129 72 115 92 54 29 -20 -2 -56 -31 -30 6 -16 1 -24 -9 265 701 457 -181 -300 -81 -76 -24 -74 -35 -38 -3 10 1 13 23 28 50 47 103 103 133 196 261 305 328 356 362 282 242 160 152 110 82 42 42 -8 10 -25 -1 24 25 8 34 -7 16 7 10 -10 7 -8 9 -26 -2 17 -1 -26 -2 -70 -42 16 3 -41 25 -3 30 44 48 46 43 56 51 5 95 48 48 69 53 32 -14 -48 -49 -62 -56 -25 -24 -51 -24 -9 -36 -147 -126 -190 -175 -205 -204 -238 -205 -205 -193 -242 -213 -72 420 456 -99 -438 -276 -254 -181 -196 -181 -217 -117 -133 -95 -106 -63 -66 -43 -37 33 19 124 86 196 210 253 320 285 269 254 142 105 89 9 -18 14 -39 -14 -41 -40 -18 -34 -73 -22 -55 -66 -75 -57 -65 -72 -82 -75 -127 -130 -139 -123 -132 -139 -166 -153 -169 -141 -164 -142 -147 -137 -153 -143 -165 -166 -158 -148 -155 -124 -170 -156 -154 -155 -191 -190 -174 -160 -215 -181 -212 -195 -243 -215 -258 -213 -213 -191 -210 -193 -206 -228 -287 -306 -391 -346 -414 -395 -445 -388 -451 -399 -454 -443 -373 123 293 -201 -586 -591 -555 -495 -521 -495 -490 -487 -509 -476 -525 -486 -516 -499 -486 -456 -488 -430 -403 -340 -333 -284 -292 -297 -312 -335 -407 -465 -554 -571 -677 -635 -700 -683 -747 -722 -745 -745 -739 -754 -755 -718 -766 -752 -785 -759 -802 -781 -807 -777 -820 -796 -790 -796 -795 -779 -788 -754 -776 -753 -752 -741 -722 -733 -740 -715 -739 -759 -761 -757 -738 -722 -726 -701 -726 -712 -703 -706 -707 -676 -698 -649 -685 -704 -698 -673 -659 -669 -677 -558 -610 -615 -635 -704 -723 -730 -698 -693 -693 -664 -685 -714 -700 -608 -635 -145 136 -400 -687 -802 -705 -579 -633 -577 -606 -549 -556 -534 -549 -510 -539 -489 -445 -399 -375 -325 -254 -191 -178 -100 -109 -52 -131 -100 -212 -253 -319 -383 -391 -357 -432 -392 -415 -345 -347 -298 -352 -317 -328 -278 -316 -297 -280 -280 -261 -242 -263 -207 -216 -197 -181 -163 -158 -144 -135 -133 -149 -128 -82 -68 -43 -5 -65 34 6 5 30 65 82 119 69 135 148 195 214 220 176 138 106 128 72 117 92 151 59 181 84 227 124 344 1006 472 -16 9 37 200 133 193 123 204 200 238 233 248 251 277 256 332 334 376 390 422 472 475 504 496 552 467 423 408 294 293 210 222 182 154 160 178 140 139 98 78 66 69 35 31 -38 -78 -209 -325 -471 -552 -596 -622 -616 -661 -675 -634 -653 -630 -612 -611 -619 -584 -600 -584 -553 -531 -513 -514 -528 -468 -455 -445 -456 -405 -433 -395 -405 -412 -402 -362 -364 -347 -371 -350 -396 -382 -365 -350 -358 -331 -351 -323 -346 -365 -358 -307 -337 -276 -266 -238 -213 -208 -270 -268 -299 -299 -275 -276 -303 -261 -280 -236 -242 -159 -114 292 665 169 -321 -204 -137 -106 -67 -81 -79 -23 -34 0 5 64 45 88 81 148 133 219 216 284 313 348 449 394 419 359 313 310 236 236 154 182 162 163 156 176 197 203 189 237 291 250 245 273 281 271 278 295 287 277 302 327 313 346 302 372 385 367 381 381 372 384 363 394 403 406 367 423 411 439 430 450 450 458 435 470 447 479 475 484 486 512 521 539 537 560 535 593 579 633 650 637 709 658 738 655 652 651 618 649 608 648 632 700 678 771 737 812 1160 747 946 737 398 743 670 744 764 773 803 832 834 890 931 932 987 975 971 1015 1004 1052 1073 1075 1126 1084 1137 1061 1114 1028 995 982 897 933 837 905 860 881 867 883 864 888 903 891 924 892 876 890 879 884 904 875 847 868 891 855 850 857 860 853 837 845 810 843 864 844 850 837 818 826 832 816 838 800 789 792 772 782 760 773 771 778 752 797 791 787 807 752 763 721 677 688 647 654 606 659 598 709 587 767 670 719 1380 707 253 638 523 569 561 564 547 583 606 591 579 593 555 606 580 635 598 672 688 706 751 722 808 716 767 665 591 588 510 503 431 435 416 389 369 379 373 359 348 358 338 366 366 355 349 346 329 327 316 339 315 329 310 300 319 284 256 299 231 262 250 247 238 268 249 250 213 239 210 238 213 170 172 171 157 197 174 194 144 202 168 199 182 208 215 151 63 77 36 45 23 8 -13 4 -38 30 -35 147 369 419 325 -34 -248 -28 -67 -42 -45 -22 -25 5 -26 -14 -43 22 -16 45 30 37 73 158 144 195 209 239 261 241 256 192 88 53 -78 -53 -107 -94 -131 -153 -143 -164 -152 -129 -129 -108 -154 -124 -162 -148 -185 -163 -172 -190 -189 -183 -214 -183 -194 -190 -221 -172 -212 -205 -180 -167 -203 -182 -227 -174 -185 -169 -174 -152 -176 -151 -153 -158 -173 -154 -232 -183 -181 -153 -186 -184 -176 -173 -215 -166 -211 -161 -190 -185 -228 -217 -199 -185 -204 -191 -217 -180 -205 -196 -234 -219 -209 -162 -198 -95 -73 -86 -106 -100 -178 -154 -197 -192 -215 -215 -216 -195 -209 -185 -207 -108 179 426 207 -237 -354 -244 -225 -208 -207 -204 -230 -208 -222 -233 -237 -201 -249 -190 -175 -189 -157 -106 -77 -19 -2 54 53 95 52 5 -88 -133 -188 -205 -247 -232 -294 -245 -275 -248 -244 -192 -232 -195 -217 -198 -214 -214 -223 -203 -269 -244 -248 -219 -268 -236 -257 -232 -235 -228 -232 -232 -270 -247 -273 -283 -310 -287 
